#Wave		#Intensity
5504.711914	3199.562256
5503.824219	3322.514893
5502.936523	3229.747803
5502.048828	3095.111084
5501.160156	3139.268555
5500.272461	3077.297119
5499.383789	3221.953857
5498.496094	3045.537354
5497.607422	3070.135498
5496.718750	3066.819580
5495.830078	3228.119141
5494.940430	3124.351318
5494.051758	3154.496826
5493.162109	3324.064209
5492.272461	3278.884521
5491.382813	3091.548096
5490.493164	3261.038818
5489.603516	3324.575439
5488.712891	3206.983398
5487.823242	3189.719727
5486.932617	3233.738281
5486.041992	3166.348877
5485.151367	3254.905762
5484.260742	3193.103271
5483.369141	3259.357910
5482.478516	3247.667969
5481.586914	3291.630859
5480.695313	3316.104980
5479.803711	3321.099854
5478.912109	3339.998047
5478.020508	3178.154785
5477.127930	3283.252686
5476.236328	3404.991943
5475.343750	3332.151855
5474.451172	3362.145996
5473.558594	3333.788330
5472.666016	3291.552002
5471.772461	3285.433594
5470.879883	3309.861084
5469.986328	3273.202637
5469.092773	3447.515625
5468.199219	3352.564697
5467.305664	3271.520020
5466.411133	3270.959473
5465.517578	3234.338379
5464.623047	3386.321045
5463.728516	3280.369385
5462.833984	3399.022461
5461.939453	3367.947998
5461.044922	3350.741699
5460.150391	3275.349609
5459.254883	3330.198975
5458.359375	3318.547607
5457.463867	3437.071289
5456.568359	3322.947998
5455.672852	3380.519775
5454.777344	3526.653320
5453.880859	3390.431152
5452.984375	3342.806885
5452.087891	3284.131836
5451.191406	3347.192871
5450.294922	3429.592773
5449.398438	3348.810059
5448.500977	3328.881592
5447.604492	3355.954346
5446.707031	3333.267578
5445.809570	3457.050049
5444.912109	3406.723633
5444.013672	3560.838135
5443.116211	3499.462891
5442.217773	3369.070313
5441.320313	3628.031738
5440.421875	3566.676270
5439.523438	3552.263672
5438.624023	3375.037354
5437.725586	3482.065430
5436.826172	3473.191650
5435.927734	3552.583984
5435.028320	3367.205322
5434.128906	3493.461670
5433.229492	3625.188232
5432.329102	3495.018799
5431.429688	3714.886719
5430.529297	3532.394043
5429.628906	3526.277588
5428.728516	3594.532959
5427.828125	3453.463867
5426.927734	3337.224609
5426.026367	3639.482910
5425.125977	3564.539307
5424.224609	3712.538818
5423.323242	3480.767090
5422.421875	3526.938477
5421.520508	3573.093750
5420.618164	3569.729736
5419.716797	3654.357422
5418.814453	3494.274170
5417.912109	3567.890381
5417.009766	3583.767090
5416.107422	3544.681885
5415.205078	3645.724609
5414.301758	3579.173340
5413.399414	3682.921631
5412.496094	3709.748047
5411.592773	3662.437744
5410.689453	3659.063232
5409.785156	3617.266846
5408.881836	3627.621338
5407.977539	3572.126465
5407.073242	3733.355225
5406.168945	3655.919922
5405.264648	3704.650146
5404.360352	3775.297119
5403.456055	3659.517334
5402.550781	3735.628906
5401.645508	3776.090576
5400.740234	3824.757813
5399.834961	3750.138184
5398.929688	3730.321533
5398.024414	3820.046631
5397.118164	3767.369385
5396.212891	3638.061768
5395.306641	3673.016602
5394.400391	3762.689453
5393.493164	3835.915283
5392.586914	3755.924072
5391.680664	3785.364014
5390.773438	3716.347412
5389.866211	3734.847168
5388.958984	3958.366211
5388.051758	3752.694824
5387.144531	3661.868652
5386.236328	3795.119873
5385.329102	3843.639160
5384.420898	3761.037842
5383.512695	3831.393066
5382.604492	3762.474121
5381.696289	3862.833496
5380.787109	3886.733643
5379.878906	3883.335938
5378.969727	3765.341553
5378.060547	3721.044922
5377.151367	3933.154785
5376.242188	3924.296387
5375.332031	3830.915283
5374.422852	3811.172852
5373.512695	3905.915771
5372.602539	4011.527100
5371.692383	3915.469971
5370.782227	3857.585938
5369.872070	3987.664795
5368.960938	3869.874268
5368.050781	3934.556885
5367.139648	3939.323975
5366.228516	3900.538330
5365.317383	3929.802734
5364.405273	3814.843750
5363.494141	4034.549805
5362.582031	3982.173828
5361.669922	4003.244629
5360.757813	4059.656494
5359.845703	4048.082520
5358.933594	3973.993896
5358.021484	4062.994141
5357.108398	3920.996826
5356.195313	3969.223389
5355.282227	3857.170410
5354.369141	4049.331055
5353.456055	3991.610107
5352.542969	4042.505615
5351.628906	4052.666748
5350.714844	4022.114502
5349.801758	4002.426758
5348.887695	4134.675781
5347.972656	3995.621826
5347.058594	4032.902588
5346.143555	4113.556641
5345.229492	4096.580078
5344.314453	4136.534668
5343.399414	4081.616699
5342.484375	4105.300781
5341.568359	4131.686035
5340.653320	4231.200195
5339.737305	4141.094727
5338.821289	4137.672363
5337.905273	4188.400391
5336.989258	4136.245605
5336.073242	4070.575928
5335.157227	4083.404053
5334.240234	4285.617188
5333.323242	4160.443359
5332.406250	4235.455566
5331.489258	4269.878906
5330.572266	4185.327637
5329.654297	4227.856934
5328.737305	4159.558594
5327.819336	4158.840820
5326.901367	4320.233398
5325.983398	4278.967285
5325.065430	4229.612305
5324.146484	4423.313965
5323.228516	4341.551270
5322.309570	4238.221191
5321.390625	4288.770996
5320.471680	4298.825195
5319.552734	4257.611816
5318.632813	4273.062500
5317.713867	4380.211914
5316.793945	4465.750488
5315.874023	4330.166992
5314.954102	4356.377441
5314.034180	4274.765625
5313.114258	4327.924316
5312.193359	4502.312012
5311.272461	4366.838867
5310.352539	4309.521973
5309.431641	4333.014648
5308.509766	4394.194336
5307.588867	4363.822754
5306.667969	4459.966309
5305.746094	4488.798340
5304.824219	4544.526855
5303.902344	4500.698730
5302.980469	4317.019531
5302.058594	4552.929199
5301.135742	4406.946777
5300.213867	4567.485840
5299.291016	4558.632813
5298.368164	4560.532715
5297.445313	4551.683594
5296.521484	4526.718750
5295.598633	4491.018555
5294.674805	4581.550781
5293.750977	4583.444336
5292.827148	4625.605957
5291.903320	4469.125000
5290.979492	4546.179688
5290.055664	4577.592773
5289.130859	4638.504883
5288.206055	4562.598633
5287.281250	4478.672852
5286.356445	4437.677734
5285.431641	4672.830566
5284.506836	4492.432617
5283.581055	4689.974609
5282.655273	4560.546875
5281.729492	4739.254883
5280.803711	4818.792969
5279.877930	4595.674805
5278.952148	4704.664551
5278.025391	4615.502930
5277.098633	4748.541504
5276.171875	4629.963867
5275.245117	4744.223145
5274.318359	4588.231934
5273.391602	4809.453613
5272.463867	4891.528809
5271.536133	4791.746094
5270.609375	4806.958008
5269.680664	4800.779785
5268.752930	4743.825195
5267.825195	4729.643555
5266.896484	4795.616211
5265.968750	4736.020020
5265.040039	4908.797852
5264.111328	4822.499512
5263.182617	4856.372070
5262.252930	5018.361328
5261.324219	4889.386719
5260.394531	4795.145508
5259.464844	4951.724609
5258.535156	4956.202148
5257.605469	5014.019043
5256.675781	4821.157715
5255.745117	4948.295898
5254.814453	4904.789063
5253.883789	4970.568848
5252.953125	4844.466309
5252.022461	4931.547852
5251.091797	4888.072754
5250.160156	4967.126465
5249.229492	4998.220703
5248.297852	4941.443848
5247.366211	4815.476074
5246.434570	4947.716797
5245.501953	5002.741211
5244.570313	4935.359863
5243.637695	4899.923340
5242.705078	5127.804199
5241.772461	5158.826172
5240.839844	4894.718262
5239.907227	5005.517090
5238.973633	5063.121582
5238.041016	5131.334961
5237.107422	5090.592285
5236.173828	5055.176270
5235.240234	5059.612305
5234.305664	5109.189453
5233.372070	5190.610352
5232.437500	5078.217773
5231.502930	5127.766113
5230.568359	5238.330566
5229.633789	5088.843262
5228.699219	5095.918945
5227.764648	5092.383301
5226.829102	5147.188477
5225.893555	5217.882324
5224.958008	5256.741211
5224.022461	5197.519531
5223.086914	5307.917480
5222.150391	5306.997070
5221.213867	5303.427246
5220.278320	5408.451660
5219.341797	5177.124512
5218.405273	5168.283691
5217.467773	5376.518066
5216.531250	5301.475586
5215.593750	5319.080078
5214.656250	5349.907227
5213.718750	5277.553223
5212.781250	5387.724609
5211.843750	5164.653809
5210.905273	5364.702637
5209.967773	5260.672852
5209.029297	5302.049316
5208.090820	5388.336426
5207.152344	5429.675781
5206.212891	5251.738281
5205.274414	5274.597656
5204.334961	5529.839844
5203.396484	5465.511719
5202.457031	5607.116699
5201.516602	5329.003418
5200.577148	5473.221191
5199.637695	5422.139160
5198.697266	5500.339355
5197.756836	5470.370605
5196.816406	5477.332031
5195.875977	5392.006836
5194.935547	5559.788574
5193.994141	5709.061523
5193.053711	5457.715820
5192.112305	5567.431152
5191.170898	5500.604492
5190.229492	5520.720215
5189.287109	5430.223145
5188.345703	5526.701172
5187.403320	5525.741211
5186.460938	5558.998047
5185.518555	5660.666504
5184.576172	5533.385742
5183.633789	5637.653320
5182.690430	5636.673340
5181.748047	5480.534668
5180.804688	5482.211426
5179.861328	5788.840332
5178.917969	5803.604492
5177.973633	5760.547852
5177.030273	5680.720703
5176.085938	5564.142090
5175.141602	5657.732910
5174.197266	5638.366211
5173.252930	5758.167969
5172.308594	5694.161133
5171.363281	5798.162598
5170.418945	5812.900391
5169.473633	5785.650391
5168.528320	5886.958008
5167.582031	5783.638184
5166.636719	5842.950195
5165.691406	5915.351074
5164.745117	5746.540039
5163.798828	5889.703125
5162.852539	5907.023438
5161.906250	5837.870117
5160.958984	5763.500488
5160.012695	5691.776367
5159.065430	5766.732910
5158.118164	5823.334473
5157.170898	6013.431641
5156.223633	5928.625488
5155.276367	5909.274414
5154.328125	5777.416504
5153.379883	5901.985352
5152.432617	5856.491699
5151.484375	6030.691895
5150.535156	5956.428711
5149.586914	5978.920898
5148.637695	5899.464355
5147.689453	5974.225586
5146.740234	6022.831543
5145.791016	6040.070313
5144.840820	5840.504395
5143.891602	6061.471191
5142.941406	5989.915527
5141.992188	5986.261719
5141.041992	5985.219238
5140.091797	6072.908691
5139.140625	6027.493164
5138.190430	6167.320801
5137.239258	6155.812988
5136.289063	6133.877441
5135.337891	6166.706055
5134.386719	6207.344238
5133.434570	6099.393555
5132.483398	6090.512207
5131.531250	6149.381348
5130.579102	6231.677246
5129.627930	6241.010254
5128.674805	6250.339844
5127.722656	6272.685547
5126.770508	6412.175781
5125.817383	6197.616699
5124.864258	6326.661133
5123.911133	6104.385254
5122.958008	6389.495605
5122.004883	6312.948730
5121.050781	6374.264648
5120.097656	6388.754883
5119.143555	6369.442871
5118.189453	6261.760254
5117.235352	6356.826172
5116.280273	6394.694336
5115.326172	6435.146484
5114.371094	6485.974609
5113.416016	6458.872559
5112.460938	6626.525391
5111.505859	6573.446777
5110.550781	6590.470215
5109.594727	6514.058594
5108.639648	6606.334961
5107.683594	6581.833496
5106.727539	6526.213379
5105.770508	6395.403320
5104.814453	6606.912109
5103.857422	6559.093750
5102.901367	6638.303711
5101.944336	6507.564453
5100.987305	6545.296387
5100.030273	6484.567383
5099.072266	6571.504883
5098.115234	6707.618164
5097.157227	6566.622070
5096.199219	6733.754883
5095.241211	6693.752930
5094.282227	6744.344238
5093.324219	6841.494141
5092.365234	6708.357422
5091.407227	6735.639648
5090.448242	6856.015137
5089.489258	6730.702148
5088.529297	6682.991699
5087.570313	6829.160645
5086.610352	6781.449219
5085.650391	6868.118652
5084.690430	6872.086426
5083.730469	6917.380859
5082.770508	6900.677246
5081.809570	6907.218262
5080.849609	6911.175293
5079.888672	7057.098145
5078.927734	7042.961426
5077.966797	6848.206055
5077.004883	6854.749512
5076.043945	7010.896973
5075.082031	6996.777344
5074.120117	6964.612305
5073.158203	7014.957031
5072.196289	6936.402344
5071.234375	6914.572754
5070.271484	7065.391113
5069.308594	7095.071777
5068.345703	7101.559082
5067.382813	7097.742188
5066.419922	7029.553711
5065.457031	7015.452148
5064.493164	7173.815430
5063.529297	7164.840820
5062.565430	7166.161133
5061.601563	6964.239258
5060.637695	7279.405762
5059.673828	7211.266602
5058.708984	7284.574219
5057.744141	7203.603027
5056.779297	7150.934570
5055.814453	7319.302734
5054.849609	7204.962891
5053.883789	7231.962891
5052.918945	7351.423340
5051.953125	7350.137207
5050.987305	7086.942871
5050.020508	7250.009277
5049.054688	7413.018066
5048.088867	7337.295898
5047.122070	7300.088867
5046.155273	7226.978027
5045.188477	7402.701172
5044.221680	7486.037109
5043.253906	7377.033203
5042.287109	7542.381836
5041.319336	7336.002441
5040.351563	7547.430176
5039.383789	7443.615234
5038.416016	7519.169434
5037.447266	7456.378418
5036.479492	7654.831055
5035.510742	7517.781738
5034.541992	7672.631836
5033.573242	7604.737305
5032.604492	7460.090332
5031.634766	7497.165039
5030.665039	7523.993652
5029.696289	7601.969727
5028.726563	7659.458984
5027.755859	7540.497070
5026.786133	7805.054199
5025.815430	7461.173828
5024.845703	7590.203613
5023.875000	7486.666992
5022.904297	7699.952637
5021.933594	7757.352051
5020.961914	7697.254883
5019.991211	7729.100098
5019.019531	7720.086914
5018.047852	7744.259277
5017.076172	7594.883789
5016.104492	7777.267578
5015.131836	7819.273926
5014.160156	7904.627441
5013.187500	7796.131348
5012.214844	7983.450684
5011.242188	7867.330078
5010.268555	7835.363770
5009.295898	7951.219727
5008.322266	7916.701660
5007.348633	7849.076660
5006.375000	8008.169922
5005.401367	8103.539551
5004.427734	8025.731445
5003.453125	7940.312988
5002.479492	8129.821289
5001.504883	8143.665039
5000.530273	8004.836426
4999.554688	8003.432617
4998.580078	8172.446777
4997.604492	8079.461426
4996.629883	8154.324219
4995.654297	8112.218262
4994.678711	8052.333984
4993.702148	8020.425293
4992.726563	8270.565430
4991.750000	8015.070801
4990.773438	7990.804688
4989.796875	8157.012207
4988.820313	8130.189941
4987.843750	8090.683105
4986.866211	8188.253418
4985.889648	8186.816406
4984.912109	8373.140625
4983.934570	8249.901367
4982.957031	8532.532227
4981.978516	8259.684570
4981.000977	8547.286133
4980.022461	8246.644531
4979.043945	8437.830078
4978.065430	8405.937500
4977.086914	8424.731445
4976.107422	8537.250977
4975.127930	8340.721680
4974.149414	8306.334961
4973.169922	8363.112305
4972.189453	8571.759766
4971.209961	8413.327148
4970.230469	8434.625000
4969.250000	8506.519531
4968.269531	8565.739258
4967.289063	8602.173828
4966.308594	8494.450195
4965.327148	8376.650391
4964.346680	8617.864258
4963.365234	8732.616211
4962.383789	8415.196289
4961.402344	8709.333984
4960.420898	8720.434570
4959.438477	8547.151367
4958.457031	8836.059570
4957.474609	8786.534180
4956.492188	8815.282227
4955.509766	8780.920898
4954.527344	8718.812500
4953.543945	8881.281250
4952.560547	8798.995117
4951.577148	8585.583008
4950.593750	9151.468750
4949.610352	8741.406250
4948.626953	8828.100586
4947.642578	9134.040039
4946.658203	8976.194336
4945.674805	8881.392578
4944.689453	8915.098633
4943.705078	9074.724609
4942.720703	8964.844727
4941.735352	9026.211914
4940.750000	9032.176758
4939.764648	8945.013672
4938.779297	9091.910156
4937.793945	9017.345703
4936.807617	9156.630859
4935.821289	9321.016602
4934.835938	8997.499023
4933.849609	9053.743164
4932.862305	9104.938477
4931.875977	9075.689453
4930.888672	9227.379883
4929.902344	9198.118164
4928.915039	9133.699219
4927.926758	9272.739258
4926.939453	9366.530273
4925.952148	9186.622070
4924.963867	9157.391602
4923.975586	9369.113281
4922.987305	9216.901367
4921.999023	9152.555664
4921.010742	9429.385742
4920.021484	9437.756836
4919.032227	9463.678711
4918.042969	9344.175781
4917.053711	9500.453125
4916.064453	9578.980469
4915.075195	9609.869141
4914.084961	9625.713867
4913.094727	9528.830078
4912.104492	9524.646484
4911.114258	9465.375000
4910.124023	9511.276367
4909.132813	9467.045898
4908.142578	9485.400391
4907.151367	9796.516602
4906.160156	9604.648438
4905.167969	9667.993164
4904.176758	9613.768555
4903.184570	9679.588867
4902.193359	9887.890625
4901.201172	9538.695313
4900.208984	9901.899414
4899.215820	9647.777344
4898.223633	9925.890625
4897.230469	9674.350586
4896.237305	9962.349609
4895.244141	9783.305664
4894.250977	10163.556641
4893.257813	9887.189453
4892.263672	9932.864258
4891.269531	9871.225586
4890.275391	10094.018555
4889.281250	10107.204102
4888.287109	10092.952148
4887.292969	9904.159180
4886.297852	10169.168945
4885.302734	10279.542969
4884.307617	10212.932617
4883.312500	10176.246094
4882.317383	10161.994141
4881.321289	10224.963867
4880.325195	10200.746094
4879.329102	10350.833984
4878.333008	10381.372070
4877.336914	10474.125000
4876.340820	10382.684570
4875.343750	10296.252930
4874.346680	10102.875977
4873.349609	10198.099609
4872.352539	10270.906250
4871.355469	10395.902344
4870.357422	10389.095703
4869.360352	10352.462891
4868.362305	10447.555664
4867.364258	10453.165039
4866.365234	10438.897461
4865.367188	10360.055664
4864.368164	10810.203125
4863.370117	10428.402344
4862.371094	10466.281250
4861.371094	10519.038086
4860.372070	10554.404297
4859.373047	10557.501953
4858.373047	10486.175781
4857.373047	10747.237305
4856.373047	10631.264648
4855.373047	10666.578125
4854.372070	10654.777344
4853.372070	10486.830078
4852.371094	10703.052734
4851.370117	10748.237305
4850.369141	10966.813477
4849.368164	10697.378906
4848.366211	10678.153320
4847.364258	10926.336914
4846.363281	10713.987305
4845.361328	10811.095703
4844.358398	10715.148438
4843.356445	11010.157227
4842.353516	10998.316406
4841.351563	11053.257813
4840.348633	10937.550781
4839.344727	11022.152344
4838.341797	11047.395508
4837.338867	10981.180664
4836.334961	11065.728516
4835.331055	11323.194336
4834.327148	10958.063477
4833.323242	11067.267578
4832.318359	11393.737305
4831.314453	11115.200195
4830.309570	11012.024414
4829.304688	11224.798828
4828.299805	11269.698242
4827.294922	11149.278320
4826.289063	11275.577148
4825.284180	11189.727539
4824.278320	11076.782227
4823.272461	11370.675781
4822.265625	11289.783203
4821.259766	11290.250000
4820.252930	11448.420898
4819.247070	11377.410156
4818.240234	11350.763672
4817.233398	11351.216797
4816.225586	11341.820313
4815.218750	11480.144531
4814.210938	11337.804688
4813.203125	11650.817383
4812.195313	11530.642578
4811.187500	11555.663086
4810.179688	11634.790039
4809.170898	11583.541992
4808.162109	11692.141602
4807.153320	11631.067383
4806.144531	11474.150391
4805.135742	11661.353516
4804.125977	11556.086914
4803.117188	11721.097656
4802.107422	11709.196289
4801.097656	11746.415039
4800.086914	11724.690430
4799.077148	11879.733398
4798.066406	11806.445313
4797.055664	11799.445313
4796.045898	11934.760742
4795.034180	11908.113281
4794.023438	11837.323242
4793.011719	11862.202148
4792.000977	11771.829102
4790.989258	11808.966797
4789.977539	11931.877930
4788.965820	11966.522461
4787.953125	11937.448242
4786.940430	11874.087891
4785.928711	11876.880859
4784.916016	12041.300781
4783.902344	11899.602539
4782.889648	11846.083008
4781.876953	11954.125000
4780.863281	12059.680664
4779.849609	12089.349609
4778.835938	12119.006836
4777.821289	12173.112305
4776.807617	12180.734375
4775.792969	12188.353516
4774.779297	12034.627930
4773.763672	12110.705078
4772.749023	12191.642578
4771.734375	12441.135742
4770.718750	12263.043945
4769.704102	12160.729492
4768.688477	12468.701172
4767.671875	12151.530273
4766.656250	12244.576172
4765.640625	12303.419922
4764.624023	12381.763672
4763.607422	12216.098633
4762.590820	12387.125977
4761.574219	12404.438477
4760.556641	12443.690430
4759.540039	12499.995117
4758.522461	12327.140625
4757.504883	12605.230469
4756.487305	12561.566406
4755.468750	12578.827148
4754.451172	12359.796875
4753.432617	12610.891602
4752.414063	12608.651367
4751.395508	12701.361328
4750.376953	12621.211914
4749.357422	12531.354492
4748.338867	12731.093750
4747.319336	12629.083984
4746.299805	12697.380859
4745.280273	12909.141602
4744.259766	12758.521484
4743.240234	12717.356445
4742.219727	12790.448242
4741.199219	12805.187500
4740.178711	12547.776367
4739.158203	12788.488281
4738.136719	12567.606445
4737.115234	12866.513672
4736.094727	12750.104492
4735.073242	12784.253906
4734.050781	12893.634766
4733.029297	12901.049805
4732.006836	13058.898438
4730.984375	12944.981445
4729.961914	12952.381836
4728.939453	12879.750977
4727.916992	12896.857422
4726.893555	13083.655273
4725.871094	13187.975586
4724.847656	13202.593750
4723.824219	13260.819336
4722.799805	12960.490234
4721.776367	13231.880859
4720.751953	13270.695313
4719.727539	13270.754883
4718.703125	13256.290039
4717.678711	13399.153320
4716.654297	13406.449219
4715.628906	13387.126953
4714.603516	13353.295898
4713.578125	13510.549805
4712.552734	13442.853516
4711.527344	13423.537109
4710.500977	13537.180664
4709.474609	13575.858398
4708.449219	13592.773438
4707.421875	13544.448242
4706.395508	13457.490234
4705.369141	13377.807617
4704.341797	13327.129883
4703.314453	13590.333984
4702.287109	13414.112305
4701.259766	13768.918945
4700.231445	13703.727539
4699.204102	13771.252930
4698.175781	13829.105469
4697.147461	13747.053711
4696.119141	13841.058594
4695.090820	13708.404297
4694.061523	13809.612305
4693.032227	13838.482422
4692.002930	14038.424805
4690.973633	13845.597656
4689.944336	13932.254883
4688.915039	13893.646484
4687.884766	13705.762695
4686.854492	14083.700195
4685.824219	13905.476563
4684.793945	13934.284180
4683.762695	13890.894531
4682.732422	14309.425781
4681.701172	14208.256836
4680.669922	13948.399414
4679.638672	14063.732422
4678.607422	14140.557617
4677.575195	14135.632813
4676.542969	14149.934570
4675.510742	14296.381836
4674.478516	14255.395508
4673.446289	14221.628906
4672.413086	14447.231445
4671.380859	14502.279297
4670.347656	14334.050781
4669.314453	14216.285156
4668.281250	14460.923828
4667.247070	14547.119141
4666.213867	14388.595703
4665.179688	14357.247070
4664.145508	14429.024414
4663.111328	14567.909180
4662.076172	14311.208008
4661.041992	14495.600586
4660.006836	14502.599609
4658.971680	14432.925781
4657.936523	14552.519531
4656.900391	14626.563477
4655.865234	14683.817383
4654.829102	14501.631836
4653.792969	14551.706055
4652.756836	14711.855469
4651.720703	14848.017578
4650.684570	14783.162109
4649.647461	14892.949219
4648.610352	14617.643555
4647.573242	14648.509766
4646.536133	14751.087891
4645.498047	14731.721680
4644.460938	14898.774414
4643.422852	14900.892578
4642.384766	14745.330078
4641.346680	14711.643555
4640.308594	15005.154297
4639.269531	14952.330078
4638.230469	14909.073242
4637.191406	14772.741211
4636.152344	14953.863281
4635.113281	15075.266602
4634.073242	15153.685547
4633.034180	15122.354492
4631.994141	15112.497070
4630.954102	15140.792969
4629.914063	15076.104492
4628.873047	15018.587891
4627.832031	15175.571289
4626.791992	15115.673828
4625.750977	15229.702148
4624.708984	15362.742188
4623.667969	15290.935547
4622.625977	15314.391602
4621.584961	15316.414063
4620.542969	15394.599609
4619.500000	15446.579102
4618.458008	15508.056641
4617.416016	15369.689453
4616.373047	15362.183594
4615.330078	15737.536133
4614.287109	15570.668945
4613.244141	15370.581055
4612.200195	15529.447266
4611.156250	15422.112305
4610.112305	15578.535156
4609.068359	15456.976563
4608.024414	15409.084961
4606.980469	15648.535156
4605.935547	15735.953125
4604.890625	15619.197266
4603.845703	15756.427734
4602.800781	15397.673828
4601.754883	15606.067383
4600.709961	15688.666992
4599.664063	15773.607422
4598.618164	15820.579102
4597.572266	15734.769531
4596.526367	15791.210938
4595.479492	15605.899414
4594.432617	15830.576172
4593.385742	15737.716797
4592.338867	15779.902344
4591.291992	15613.668945
4590.244141	15511.425781
4589.197266	15856.650391
4588.149414	15716.527344
4587.101563	15798.907227
4586.052734	16115.500000
4585.004883	15831.097656
4583.956055	15882.662109
4582.907227	15730.832031
4581.858398	15884.063477
4580.809570	15992.324219
4579.759766	16069.819336
4578.710938	16026.766602
4577.661133	16073.510742
4576.611328	16091.890625
4575.561523	15937.846680
4574.510742	16152.242188
4573.460938	16005.325195
4572.410156	16219.629883
4571.359375	15968.904297
4570.308594	16138.302734
4569.256836	16208.547852
4568.206055	15948.521484
4567.154297	16025.849609
4566.102539	16133.804688
4565.050781	16406.753906
4563.999023	16396.740234
4562.946289	16384.371094
4561.893555	16324.879883
4560.840820	16303.103516
4559.788086	16408.533203
4558.735352	16221.891602
4557.681641	16348.488281
4556.628906	16230.197266
4555.575195	16432.068359
4554.521484	16622.097656
4553.467773	16484.996094
4552.413086	16552.613281
4551.358398	16352.063477
4550.304688	16344.425781
4549.249023	16454.353516
4548.194336	16230.418945
4547.139648	16605.927734
4546.083984	16626.447266
4545.028320	16343.858398
4543.972656	16719.142578
4542.916992	16340.338867
4541.861328	16374.978516
4540.804688	16768.835938
4539.748047	16725.917969
4538.691406	16821.490234
4537.634766	16802.042969
4536.578125	16806.064453
4535.520508	16725.634766
4534.462891	16842.244141
4533.405273	16754.800781
4532.347656	16782.269531
4531.290039	16680.800781
4530.231445	16382.497070
4529.173828	16841.179688
4528.115234	16976.382813
4527.055664	16706.294922
4525.997070	16752.474609
4524.938477	16829.078125
4523.878906	17013.347656
4522.819336	16902.615234
4521.759766	16770.859375
4520.700195	16938.658203
4519.639648	17022.173828
4518.579102	17309.160156
4517.519531	16950.572266
4516.458008	17043.392578
4515.397461	16911.748047
4514.336914	17098.035156
4513.275391	17113.656250
4512.213867	17157.310547
4511.152344	17044.425781
4510.090820	16912.896484
4509.028320	17077.996094
4507.966797	17287.396484
4506.904297	17274.949219
4505.841797	17269.507813
4504.779297	17415.751953
4503.715820	17232.962891
4502.653320	17320.839844
4501.589844	17226.761719
4500.526367	17139.712891
4499.461914	17143.623047
4498.398438	17138.207031
4497.333984	17027.910156
4496.270508	17260.203125
4495.206055	17196.519531
4494.140625	17524.201172
4493.076172	17539.679688
4492.010742	17257.091797
4490.946289	17247.000000
4489.880859	17504.601563
4488.815430	17478.177734
4487.749023	17721.681641
4486.683594	17734.775391
4485.617188	17554.800781
4484.550781	17419.078125
4483.484375	17541.503906
4482.416992	17454.650391
4481.350586	17377.126953
4480.283203	17473.925781
4479.215820	17352.277344
4478.148438	17525.708984
4477.081055	17652.625000
4476.012695	17368.445313
4474.944336	17701.988281
4473.875977	17849.693359
4472.807617	17728.103516
4471.739258	18084.605469
4470.669922	17717.074219
4469.601563	17616.449219
4468.532227	17713.007813
4467.462891	17751.556641
4466.392578	17720.533203
4465.323242	17777.609375
4464.252930	17839.300781
4463.182617	17724.855469
4462.112305	18001.998047
4461.041992	17771.742188
4459.970703	17863.494141
4458.900391	18024.679688
4457.829102	17977.441406
4456.757813	18103.826172
4455.685547	17857.554688
4454.614258	17889.041016
4453.541992	17918.205078
4452.469727	17822.447266
4451.397461	17877.048828
4450.325195	18068.054688
4449.251953	18000.062500
4448.179688	18033.798828
4447.106445	18243.158203
4446.033203	18262.970703
4444.959961	17980.144531
4443.885742	18023.093750
4442.811523	18119.142578
4441.738281	17965.792969
4440.663086	17914.070313
4439.588867	18319.369141
4438.514648	18050.679688
4437.439453	18144.326172
4436.364258	18383.269531
4435.289063	18135.468750
4434.213867	18238.269531
4433.137695	18211.919922
4432.062500	18125.644531
4430.986328	18661.687500
4429.910156	18308.054688
4428.833984	18300.140625
4427.756836	18218.515625
4426.680664	18427.109375
4425.603516	18209.630859
4424.526367	18413.546875
4423.448242	18313.541016
4422.371094	18284.917969
4421.292969	18707.302734
4420.214844	18535.978516
4419.136719	18629.236328
4418.058594	18352.195313
4416.980469	18590.312500
4415.901367	18357.058594
4414.822266	18588.189453
4413.743164	18359.615234
4412.664063	18466.585938
4411.583984	18725.136719
4410.504883	18418.564453
4409.424805	18640.287109
4408.344727	18448.642578
4407.264648	18651.912109
4406.183594	18602.634766
4405.103516	18594.681641
4404.022461	18476.599609
4402.941406	18562.722656
4401.859375	18605.236328
4400.778320	18429.886719
4399.696289	18600.798828
4398.614258	18620.357422
4397.532227	18598.652344
4396.450195	18625.078125
4395.368164	18772.917969
4394.285156	18904.667969
4393.202148	19018.048828
4392.119141	18678.005859
4391.036133	18697.519531
4389.952148	18913.876953
4388.869141	18599.208984
4387.785156	18701.097656
4386.701172	18816.673828
4385.617188	19051.150391
4384.532227	18754.976563
4383.448242	18689.845703
4382.363281	18496.716797
4381.278320	19009.929688
4380.192383	18691.121094
4379.107422	18637.470703
4378.021484	18567.845703
4376.935547	18555.347656
4375.849609	18816.884766
4374.763672	18913.937500
4373.677734	18586.357422
4372.590820	18660.589844
4371.503906	18873.994141
4370.416992	18989.214844
4369.330078	18604.828125
4368.242188	18672.158203
4367.154297	18858.039063
4366.067383	18788.505859
4364.979492	18844.367188
4363.890625	18809.044922
4362.802734	18985.648438
4361.713867	18740.714844
4360.625000	18791.986328
4359.536133	18957.107422
4358.447266	18603.015625
4357.357422	18861.449219
4356.268555	18787.468750
4355.178711	18811.371094
4354.088867	18605.455078
4352.998047	18476.958984
4351.908203	18778.394531
4350.817383	18856.855469
4349.726563	19021.689453
4348.635742	18777.271484
4347.544922	18812.503906
4346.453125	18911.351563
4345.361328	18901.105469
4344.269531	19036.246094
4343.177734	18971.468750
4342.085938	18931.695313
4340.993164	19041.779297
4339.901367	19051.943359
4338.808594	18837.416016
4337.715820	18847.613281
4336.622070	18866.880859
4335.529297	18781.794922
4334.435547	18689.937500
4333.341797	18870.212891
4332.248047	18699.023438
4331.154297	19128.564453
4330.059570	18955.121094
4328.964844	18969.806641
4327.870117	19063.777344
4326.775391	19112.412109
4325.680664	18993.445313
4324.584961	19100.941406
4323.489258	18868.828125
4322.393555	19143.798828
4321.297852	18977.386719
4320.202148	19229.611328
4319.105469	18837.025391
4318.008789	19093.705078
4316.912109	18782.693359
4315.815430	18881.023438
4314.718750	19218.931641
4313.621094	18946.486328
4312.523438	18906.888672
4311.425781	18959.933594
4310.328125	18999.408203
4309.229492	18941.751953
4308.131836	18940.566406
4307.033203	19083.871094
4305.934570	18843.392578
4304.835938	18955.064453
4303.736328	19179.515625
4302.636719	19024.876953
4301.538086	19177.052734
4300.437500	18911.964844
4299.337891	18840.882813
4298.238281	18796.878906
4297.137695	18829.523438
4296.037109	18835.113281
4294.936523	18901.535156
4293.835938	19238.257813
4292.734375	18863.126953
4291.632813	19021.832031
4290.532227	18937.316406
4289.429688	19059.933594
4288.328125	18757.125000
4287.225586	19028.244141
4286.124023	18754.798828
4285.021484	18980.830078
4283.918945	18981.873047
4282.815430	19043.628906
4281.712891	18792.859375
4280.609375	18991.740234
4279.505859	18932.099609
4278.402344	18910.675781
4277.297852	19179.070313
4276.194336	19105.947266
4275.089844	19077.765625
4273.985352	18762.187500
4272.880859	18938.367188
4271.775391	19148.148438
4270.670898	18960.642578
4269.565430	18827.054688
4268.459961	18698.000000
4267.354492	19071.400391
4266.248047	18641.853516
4265.141602	18752.804688
4264.036133	18798.705078
4262.929688	18754.937500
4261.822266	18814.263672
4260.715820	18875.808594
4259.608398	19049.332031
4258.500977	18821.898438
4257.393555	19071.500000
4256.286133	18879.962891
4255.177734	19013.066406
4254.069336	18729.849609
4252.961914	18699.583984
4251.852539	19033.990234
4250.744141	19014.863281
4249.635742	18921.941406
4248.526367	18799.986328
4247.416992	18754.082031
4246.307617	18815.482422
4245.197266	18923.787109
4244.087891	18665.623047
4242.977539	18709.130859
4241.867188	18761.556641
4240.756836	18981.445313
4239.645508	18924.398438
4238.535156	18981.218750
4237.423828	18868.392578
4236.312500	18813.626953
4235.200195	18774.496094
4234.088867	18991.906250
4232.976563	18778.796875
4231.864258	18873.482422
4230.751953	18992.658203
4229.639648	18900.031250
4228.527344	18985.726563
4227.414063	18465.312500
4226.300781	18651.306641
4225.187500	18710.269531
4224.074219	19141.119141
4222.959961	18799.181641
4221.845703	18797.976563
4220.731445	18845.736328
4219.617188	18561.898438
4218.502930	18729.830078
4217.387695	18564.017578
4216.272461	18754.128906
4215.157227	18555.013672
4214.041992	18680.578125
4212.926758	19146.207031
4211.810547	18880.449219
4210.694336	18645.898438
4209.578125	18640.269531
4208.461914	18625.757813
4207.345703	18426.914063
4206.228516	18652.259766
4205.111328	18453.482422
4203.994141	18658.761719
4202.876953	18411.228516
4201.758789	18594.250000
4200.640625	18814.917969
4199.523438	18363.427734
4198.404297	18391.119141
4197.286133	18640.523438
4196.167969	18464.201172
4195.048828	18607.111328
4193.929688	18390.968750
4192.810547	18372.095703
4191.690430	18572.537109
4190.571289	18380.880859
4189.451172	18528.099609
4188.331055	18172.681641
4187.210938	18618.722656
4186.089844	18363.009766
4184.968750	18218.031250
4183.848633	18112.927734
4182.727539	18118.460938
4181.605469	18294.285156
4180.484375	18282.093750
4179.362305	18161.576172
4178.240234	18282.035156
4177.118164	18068.740234
4175.996094	18341.630859
4174.873047	18225.605469
4173.750000	18357.003906
4172.626953	18234.392578
4171.503906	18072.082031
4170.380859	18360.169922
4169.256836	18592.972656
4168.133789	18172.494141
4167.009766	17983.835938
4165.884766	18240.841797
4164.760742	18003.714844
4163.635742	18231.957031
4162.510742	17858.224609
4161.385742	18101.835938
4160.260742	18078.685547
4159.135742	17996.046875
4158.009766	17893.611328
4156.883789	18009.279297
4155.757813	17953.125000
4154.630859	18007.083984
4153.504883	17966.359375
4152.377930	17784.779297
4151.250977	17728.703125
4150.124023	17930.080078
4148.997070	17783.802734
4147.869141	17569.392578
4146.741211	17830.060547
4145.613281	17912.541016
4144.485352	17970.808594
4143.356445	17596.074219
4142.228516	17797.212891
4141.099609	17644.548828
4139.970703	17597.380859
4138.841797	17745.695313
4137.711914	17648.019531
4136.582031	17758.945313
4135.452148	17676.667969
4134.322266	17521.994141
4133.192383	17446.371094
4132.061523	17440.976563
4130.931641	17714.148438
4129.800781	17656.074219
4128.668945	17475.232422
4127.538086	17520.253906
4126.406250	17385.529297
4125.274414	17649.693359
4124.142578	17466.791016
4123.010742	17316.812500
4121.878906	17388.101563
4120.746094	17306.078125
4119.613281	17565.628906
4118.480469	17479.222656
4117.347656	17644.537109
4116.213867	17547.205078
4115.080078	17460.845703
4113.946289	17464.201172
4112.812500	17314.466797
4111.678711	17514.640625
4110.543945	17406.486328
4109.409180	17525.693359
4108.274414	17142.216797
4107.139648	17375.046875
4106.003906	17046.351563
4104.869141	17541.214844
4103.733398	17382.943359
4102.597656	17069.708984
4101.460938	17180.087891
4100.325195	17220.582031
4099.188477	17136.677734
4098.051758	17011.347656
4096.915039	17265.625000
4095.778320	17039.992188
4094.640625	17030.318359
4093.502930	17439.240234
4092.365234	17446.933594
4091.227539	17254.121094
4090.088867	17270.560547
4088.951172	17254.312500
4087.812500	16767.585938
4086.673828	17267.568359
4085.534180	17205.603516
4084.395508	16999.980469
4083.255859	17138.332031
4082.116211	17065.542969
4080.976563	17140.730469
4079.836914	17026.634766
4078.696289	16755.980469
4077.555664	16937.736328
4076.415039	17017.238281
4075.274414	16796.730469
4074.132813	16769.732422
4072.992188	16862.257813
4071.850586	16946.056641
4070.708984	16725.722656
4069.566406	17156.998047
4068.424805	16680.480469
4067.282227	16718.658203
4066.139648	16459.453125
4064.997070	16773.269531
4063.853516	16754.992188
4062.710938	16914.611328
4061.567383	16766.175781
4060.423828	16691.525391
4059.280273	16692.787109
4058.135742	16886.980469
4056.991211	16680.138672
4055.847656	16622.890625
4054.702148	16489.833984
4053.557617	16558.281250
4052.413086	16620.205078
4051.267578	16498.046875
4050.122070	16538.306641
4048.976563	16671.628906
4047.830078	16543.033203
4046.683594	16678.468750
4045.538086	16554.244141
4044.390625	16501.445313
4043.244141	16321.071289
4042.097656	16346.171875
4040.950195	16537.720703
4039.802734	16515.218750
4038.655273	16404.125000
4037.506836	16366.531250
4036.359375	16389.435547
4035.210938	16235.228516
4034.062500	16281.901367
4032.914063	16401.960938
4031.764648	16198.186523
4030.616211	16404.544922
4029.466797	16297.945313
4028.317383	16299.253906
4027.166992	16257.420898
4026.017578	16157.374023
4024.867188	16244.955078
4023.716797	15933.675781
4022.566406	16101.013672
4021.415039	16207.949219
4020.264648	16004.578125
4019.113281	16089.948242
4017.961914	15977.133789
4016.810547	16228.290039
4015.658203	16020.756836
4014.505859	15836.977539
4013.353516	15900.773438
4012.201172	15893.535156
4011.048828	16099.291016
4009.895508	15881.213867
4008.742188	16121.305664
4007.588867	15853.846680
4006.435547	15730.527344
4005.282227	15800.704102
4004.127930	15731.165039
4002.973633	15971.059570
4001.819336	15746.836914
4000.665039	15786.886719
3999.509766	15674.448242
3998.354492	15753.141602
3997.199219	15780.285156
3996.043945	15725.858398
3994.888672	15665.013672
3993.732422	15623.500977
3992.576172	15590.582031
3991.419922	15671.344727
3990.263672	15743.499023
3989.106445	15815.625977
3987.949219	15619.786133
3986.792969	15773.346680
3985.634766	15727.576172
3984.477539	15480.443359
3983.319336	15447.594727
3982.161133	15326.954102
3981.002930	15424.753906
3979.844727	15441.167969
3978.686523	15322.733398
3977.527344	15251.421875
3976.368164	15468.974609
3975.208984	15339.903320
3974.048828	15548.803711
3972.889648	15394.103516
3971.729492	15183.872070
3970.569336	15422.609375
3969.409180	15270.153320
3968.248047	15083.564453
3967.087891	15258.093750
3965.926758	14857.974609
3964.764648	15231.090820
3963.603516	15076.671875
3962.442383	15031.185547
3961.280273	15263.188477
3960.118164	15328.652344
3958.955078	15108.184570
3957.792969	15293.112305
3956.629883	14885.041992
3955.466797	15044.351563
3954.303711	14896.586914
3953.140625	15168.811523
3951.976563	15014.682617
3950.813477	14894.705078
3949.649414	15015.513672
3948.484375	14818.895508
3947.320313	14884.300781
3946.155273	14789.984375
3944.990234	14987.359375
3943.825195	14895.186523
3942.660156	14896.682617
3941.494141	14891.794922
3940.329102	14865.634766
3939.163086	14920.306641
3937.996094	14940.933594
3936.830078	14821.227539
3935.663086	14744.080078
3934.496094	14747.722656
3933.329102	14808.737305
3932.162109	14746.504883
3930.995117	14546.224609
3929.827148	14481.938477
3928.659180	14821.115234
3927.491211	14521.151367
3926.322266	14369.876953
3925.153320	14715.250977
3923.985352	14657.355469
3922.816406	14837.077148
3921.646484	14560.715820
3920.477539	14350.194336
3919.307617	14362.374023
3918.137695	14622.568359
3916.967773	14516.002930
3915.796875	14621.380859
3914.626953	14548.751953
3913.456055	14463.440430
3912.285156	14399.338867
3911.113281	14201.859375
3909.942383	14472.326172
3908.770508	14329.939453
3907.598633	14333.627930
3906.426758	14176.506836
3905.253906	14296.574219
3904.082031	14133.171875
3902.909180	14356.822266
3901.736328	14349.927734
3900.562500	14209.857422
3899.389648	14156.494141
3898.215820	14276.427734
3897.041992	14100.530273
3895.868164	14197.192383
3894.693359	14042.493164
3893.519531	14080.004883
3892.344727	14204.060547
3891.169922	14053.666016
3889.994141	14226.217773
3888.819336	14090.644531
3887.643555	13931.914063
3886.467773	14030.568359
3885.291992	14175.579102
3884.115234	13985.292969
3882.939453	13847.778320
3881.762695	13720.852539
3880.585938	13931.136719
3879.408203	14061.279297
3878.231445	13715.308594
3877.053711	13693.804688
3875.875977	14000.795898
3874.698242	13867.663086
3873.519531	13955.595703
3872.341797	13864.611328
3871.163086	13643.202148
3869.984375	13682.740234
3868.804688	13959.940430
3867.625977	13892.152344
3866.446289	13660.387695
3865.266602	13674.664063
3864.085938	13907.519531
3862.906250	13724.211914
3861.725586	13627.113281
3860.544922	13601.470703
3859.364258	13640.944336
3858.183594	13575.411133
3857.001953	13495.205078
3855.820313	13813.847656
3854.638672	13750.415039
3853.457031	13561.109375
3852.274414	13587.955078
3851.092773	13656.740234
3849.910156	13513.692383
3848.726563	13737.620117
3847.543945	13512.852539
3846.360352	13367.813477
3845.177734	13423.999023
3843.993164	13589.110352
3842.809570	13465.083984
3841.625977	13573.577148
3840.441406	13338.617188
3839.256836	13367.536133
3838.072266	13201.776367
3836.886719	13278.843750
3835.701172	13265.907227
3834.516602	13238.331055
3833.330078	13352.996094
3832.144531	13164.386719
3830.958008	13492.288086
3829.772461	13416.607422
3828.585938	13345.133789
3827.398438	13284.134766
3826.211914	13273.301758
3825.024414	13141.314453
3823.836914	13245.378906
3822.649414	13219.940430
3821.461914	13219.562500
3820.273438	13129.428711
3819.084961	13287.676758
3817.896484	13026.463867
3816.708008	13314.012695
3815.518555	13034.119141
3814.329102	13156.812500
3813.139648	13127.252930
3811.950195	13327.012695
3810.760742	13226.566406
3809.570313	13142.829102
3808.379883	12946.615234
3807.189453	13112.927734
3805.999023	12854.310547
3804.807617	12943.533203
3803.616211	12807.875000
3802.424805	12999.065430
3801.233398	12907.150391
3800.041992	12906.822266
3798.849609	13025.072266
3797.657227	12870.803711
3796.464844	12826.809570
3795.271484	12913.819336
3794.079102	12865.673828
3792.885742	12771.821289
3791.692383	12717.485352
3790.498047	12767.051758
3789.304688	12914.228516
3788.110352	12662.593750
3786.916016	12853.339844
3785.721680	12705.612305
3784.526367	12836.083008
3783.332031	12717.467773
3782.136719	12702.641602
3780.941406	12606.915039
3779.745117	12855.530273
3778.549805	12768.103516
3777.353516	12678.635742
3776.157227	12682.485352
3774.960938	12642.807617
3773.763672	12590.710938
3772.566406	12631.866211
3771.369141	12693.718750
3770.171875	12405.541016
3768.974609	12558.520508
3767.776367	12547.891602
3766.578125	12413.072266
3765.379883	12592.866211
3764.181641	12474.641602
3762.982422	12521.957031
3761.783203	12240.390625
3760.583984	12451.098633
3759.384766	12397.081055
3758.184570	12419.567383
3756.985352	12369.708008
3755.785156	12485.177734
3754.584961	12497.303711
3753.383789	12381.355469
3752.183594	12573.170898
3750.982422	12382.916016
3749.781250	12347.567383
3748.579102	12351.448242
3747.377930	12268.652344
3746.175781	12130.176758
3744.973633	12208.360352
3743.771484	12094.697266
3742.568359	11989.325195
3741.365234	12147.897461
3740.162109	12228.078125
3738.958984	12048.542969
3737.755859	12252.346680
3736.551758	12118.198242
3735.347656	12054.132813
3734.143555	11850.049805
3732.939453	11915.778320
3731.734375	12010.303711
3730.529297	12026.578125
3729.324219	11997.572266
3728.119141	11925.368164
3726.914063	11692.734375
3725.708008	12052.531250
3724.501953	11939.228516
3723.295898	12087.077148
3722.088867	12105.367188
3720.882813	12047.607422
3719.675781	11987.813477
3718.468750	11866.409180
3717.260742	11907.319336
3716.053711	12028.306641
3714.845703	11814.563477
3713.637695	11898.569336
3712.429688	11863.498047
3711.220703	11922.836914
3710.011719	12039.601563
3708.802734	11891.697266
3707.593750	11891.517578
3706.384766	11909.791992
3705.174805	11632.831055
3703.964844	11909.422852
3702.754883	11671.503906
3701.544922	11765.619141
3700.333984	11800.287109
3699.123047	11533.844727
3697.912109	11683.224609
3696.701172	11883.734375
3695.489258	11785.289063
3694.278320	11758.516602
3693.066406	11627.388672
3691.853516	11529.044922
3690.641602	11620.977539
3689.428711	11618.794922
3688.215820	11841.542969
3687.002930	11677.809570
3685.790039	11616.338867
3684.576172	11706.122070
3683.362305	11644.667969
3682.148438	11640.438477
3680.934570	11519.785156
3679.719727	11513.537109
3678.504883	11427.662109
3677.290039	11648.024414
3676.075195	11551.950195
3674.860352	11492.642578
3673.644531	11557.810547
3672.428711	11545.438477
3671.212891	11484.125000
3669.996094	11335.154297
3668.780273	11326.907227
3667.563477	11416.500977
3666.346680	11412.317383
3665.128906	11554.835938
3663.912109	11560.812500
3662.694336	11359.036133
3661.476563	11287.663086
3660.257813	11126.732422
3659.040039	11466.623047
3657.821289	11385.092773
3656.602539	11498.937500
3655.383789	11498.808594
3654.164063	11234.249023
3652.945313	11274.842773
3651.725586	11278.822266
3650.504883	11036.813477
3649.285156	11388.401367
3648.064453	11185.073242
3646.844727	11217.508789
3645.623047	11089.450195
3644.402344	11160.479492
3643.180664	11142.133789
3641.959961	11347.123047
3640.738281	11273.941406
3639.515625	11123.666016
3638.293945	11149.979492
3637.071289	11072.816406
3635.848633	10987.569336
3634.625977	11259.276367
3633.402344	11194.300781
3632.178711	11111.104492
3630.955078	11161.708984
3629.731445	11252.822266
3628.507813	11151.425781
3627.283203	11009.553711
3626.058594	11112.794922
3624.833984	11060.078125
3623.609375	11274.619141
3622.383789	11009.355469
3621.158203	11051.803711
3619.932617	10812.984375
3618.707031	11015.270508
3617.480469	10835.203125
3616.254883	10914.050781
3615.028320	11083.851563
3613.800781	11083.783203
3612.574219	10893.731445
3611.346680	10915.926758
3610.119141	10887.603516
3608.891602	10897.670898
3607.663086	10887.537109
3606.435547	10903.656250
3605.207031	11059.067383
3603.978516	10732.013672
3602.749023	10879.326172
3601.520508	10677.523438
3600.291016	10818.737305
3599.061523	10909.474609
3597.831055	10651.316406
3596.601563	10679.548828
3595.371094	10611.013672
3594.140625	10703.734375
3592.909180	10864.929688
3591.678711	10639.255859
3590.447266	10737.959961
3589.215820	10526.490234
3587.984375	10633.231445
3586.751953	10629.210938
3585.520508	10645.319336
3584.288086	10675.506836
3583.054688	10621.179688
3581.822266	10739.869141
3580.588867	10615.158203
3579.355469	10486.470703
3578.122070	10593.054688
3576.888672	10504.621094
3575.654297	10591.062500
3574.419922	10289.674805
3573.185547	10673.445313
3571.951172	10583.052734
3570.715820	10484.661133
3569.480469	10577.045898
3568.245117	10470.662109
3567.009766	10490.760742
3565.773438	10328.245117
3564.538086	10332.312500
3563.301758	10625.225586
3562.064453	10510.908203
3560.828125	10428.715820
3559.590820	10182.164063
3558.353516	10366.646484
3557.116211	10436.830078
3555.877930	10533.034180
3554.640625	10478.958008
3553.402344	10362.812500
3552.164063	10274.746094
3550.924805	10469.008789
3549.686523	10322.904297
3548.447266	10310.945313
3547.207031	10365.021484
3545.967773	10399.071289
3544.727539	10307.094727
3543.488281	10387.137695
3542.248047	10395.168945
3541.006836	10041.364258
3539.766602	10205.355469
3538.525391	10209.418945
3537.284180	10267.424805
3536.041992	10149.623047
3534.800781	10207.617188
3533.558594	10027.968750
3532.316406	10089.956055
3531.074219	10249.725586
3529.831055	9998.326172
3528.587891	10189.976563
3527.344727	9872.849609
3526.101563	10082.401367
3524.858398	10062.543945
3523.614258	9960.948242
3522.370117	9875.338867
3521.125977	9891.405273
3519.880859	10136.620117
3518.636719	9921.526367
3517.391602	9957.492188
3516.146484	9993.444336
3514.900391	9848.188477
3513.655273	10071.278320
3512.409180	9886.253906
3511.163086	9848.560547
3509.916016	9846.693359
3508.669922	9894.558594
3507.422852	9924.504883
3506.175781	9896.772461
3504.927734	9801.454102
3503.680664	9795.620117
3502.432617	9698.369141
3501.184570	9660.763672
3499.935547	9772.168945
3498.687500	9738.536133
3497.438477	9734.703125
3496.189453	9891.695313
3494.940430	9689.322266
3493.690430	9550.538086
3492.441406	9768.989258
3491.190430	9715.552734
3489.940430	9840.659180
3488.690430	9753.513672
3487.439453	9674.331055
3486.188477	9545.617188
3484.937500	9652.820313
3483.685547	9543.975586
3482.434570	9625.379883
3481.182617	9589.876953
3479.929688	9720.755859
3478.677734	9497.125977
3477.424805	9679.447266
3476.171875	9772.624023
3474.918945	9679.730469
3473.666016	9525.531250
3472.412109	9652.313477
3471.158203	9381.477539
3469.904297	9597.230469
3468.650391	9427.343750
3467.395508	9431.483398
3466.140625	9473.173828
3464.885742	9453.588867
3463.630859	9570.335938
3462.375000	9519.133789
3461.119141	9631.872070
3459.863281	9527.363281
3458.607422	9261.008789
3457.350586	9444.789063
3456.093750	9298.930664
3454.836914	9301.109375
3453.580078	9386.140625
3452.322266	9372.521484
3451.064453	9402.291016
3449.806641	9497.110352
3448.548828	9392.801758
3447.291016	9256.999023
3446.032227	9334.056641
3444.773438	9290.909180
3443.513672	9316.718750
3442.254883	9336.608398
3440.995117	9120.215820
3439.735352	9193.287109
3438.475586	9219.092773
3437.214844	9130.753906
3435.955078	9225.421875
3434.694336	9278.745117
3433.432617	9113.742188
3432.171875	9051.050781
3430.910156	9051.293945
3429.648438	9069.227539
3428.386719	9238.474609
3427.124023	9079.528320
3425.862305	9158.342773
3424.599609	9103.568359
3423.335938	9095.944336
3422.073242	8874.317383
3420.809570	9039.479492
3419.545898	9090.748047
3418.282227	8892.793945
3417.018555	8942.108398
3415.753906	9030.632813
3414.489258	8895.557617
3413.224609	8993.860352
3411.958984	9174.459961
3410.694336	9057.072266
3409.428711	8890.739258
3408.163086	9045.784180
3406.896484	8897.145508
3405.629883	9085.422852
3404.364258	8977.953125
3403.096680	8901.847656
3401.830078	8913.852539
3400.562500	8798.647461
3399.294922	8963.282227
3398.027344	8963.530273
3396.759766	8729.071289
3395.491211	8829.092773
3394.222656	8641.671875
3392.954102	8749.490234
3391.685547	8741.958008
3390.416016	8951.324219
3389.146484	8666.338867
3387.876953	8776.021484
3386.607422	8885.662109
3385.336914	8885.919922
3384.066406	8770.999023
3382.795898	8660.026367
3381.525391	8720.818359
3380.253906	8699.643555
3378.982422	8672.625000
3377.710938	8756.782227
3376.439453	8827.257813
3375.166992	8704.701172
3373.894531	8722.530273
3372.622070	8514.292969
3371.349609	8530.203125
3370.076172	8799.353516
3368.802734	8521.102539
3367.529297	8451.319336
3366.255859	8562.627930
3364.981445	8671.946289
3363.707031	8615.796875
3362.432617	8618.041992
3361.158203	8342.087891
3359.882813	8706.167969
3358.607422	8659.776367
3357.332031	8485.076172
3356.056641	8640.916016
3354.780273	8627.602539
3353.503906	8179.013672
3352.227539	8490.249023
3350.951172	8527.475586
3349.673828	8428.740234
3348.396484	8485.380859
3347.119141	8561.413086
3345.841797	8400.615234
3344.563477	8472.751953
3343.285156	8517.698242
3342.006836	8322.081055
3340.728516	8403.888672
3339.449219	8441.064453
3338.169922	8485.980469
3336.890625	8344.791992
3335.611328	8405.212891
3334.331055	8223.403320
3333.050781	8508.547852
3331.770508	8233.815430
3330.490234	8416.210938
3329.208984	8290.685547
3327.927734	8285.227539
3326.646484	8302.996094
3325.365234	8208.523438
3324.083008	8367.532227
3322.800781	8549.690430
3321.518555	8331.451172
3320.236328	8329.856445
3318.953125	8310.862305
3317.669922	8318.935547
3316.386719	8286.422852
3315.103516	8269.378906
3313.819336	8219.502930
3312.535156	8275.869141
3311.250977	8291.663086
3309.966797	8160.723145
3308.681641	8404.300781
3307.396484	8107.419434
3306.111328	8132.879395
3304.826172	8231.636719
3303.540039	8291.779297
3302.253906	8054.925781
3300.967773	8192.200195
3299.681641	8248.459961
3298.394531	8111.968750
3297.107422	8199.052734
3295.820313	8222.525391
3294.532227	8161.237793
3293.245117	8180.856934
3291.957031	8412.267578
3290.668945	8154.619141
3289.379883	8110.711914
3288.091797	8149.567383
3286.802734	8196.103516
3285.512695	8159.906738
3284.223633	8123.723633
3282.933594	8189.465332
3281.643555	8251.336914
3280.353516	8186.323730
3279.063477	8301.979492
3277.772461	8090.956055
3276.481445	8068.271973
3275.190430	8085.930176
3273.898438	8178.472168
3272.607422	8115.465332
3271.315430	8040.964844
3270.022461	7922.351563
3268.730469	8095.442383
3267.437500	8147.604492
3266.144531	8055.890625
3264.851563	8015.989746
3263.557617	8114.151855
3262.264648	8066.586426
3260.970703	7974.957520
3259.675781	8034.745117
3258.381836	7914.418457
3257.086914	7953.123535
3255.791992	8173.750000
3254.497070	8110.907715
3253.201172	8048.088867
3251.905273	8149.899902
3250.609375	7989.500488
3249.313477	7930.566406
3248.016602	7900.348633
3246.720703	7849.104004
3245.423828	8017.779785
3244.125977	7947.413086
3242.829102	7871.338867
3241.531250	7736.050293
3240.233398	7807.169922
3238.934570	7926.020508
3237.636719	7974.155762
3236.337891	8031.820313
3235.039063	7917.630371
3233.739258	7973.374023
3232.440430	7702.740723
3231.140625	7848.186035
3229.840820	7886.739746
3228.540039	7818.463379
3227.240234	7694.908203
3225.939453	8053.789063
3224.638672	7991.237793
3223.336914	7751.457520
3222.035156	7965.295410
3220.734375	7786.578613
3219.431641	7889.846191
3218.129883	7840.715332
3216.827148	7898.233398
3215.524414	7774.873535
3214.221680	7634.430664
3212.918945	7724.305176
3211.615234	7821.754883
3210.311523	7694.698730
3209.007813	7794.018066
3207.703125	7725.963379
3206.398438	7684.550293
3205.093750	7884.556152
3203.789063	7765.209961
3202.483398	7797.915527
3201.178711	7802.112305
3199.873047	7813.904297
3198.566406	7838.984375
3197.260742	7567.871094
3195.954102	7577.802246
3194.647461	7718.683105
3193.340820	7612.832031
3192.033203	7567.729980
3190.725586	7672.491211
3189.417969	7576.191406
3188.110352	7656.261230
3186.801758	7755.256348
3185.493164	7666.576172
3184.184570	7610.144043
3182.875000	7610.571289
3181.566406	7626.151855
3180.256836	7685.284180
3178.947266	7454.688965
3177.636719	7523.296875
3176.327148	7660.017578
3175.016602	7541.210938
3173.705078	7522.728027
3172.394531	7458.851074
3171.083008	7362.846680
3169.771484	7592.120605
3168.459961	7509.360840
3167.147461	7366.145996
3165.835938	7617.963379
3164.523438	7499.345215
3163.209961	7458.226074
3161.897461	7402.012207
3160.583984	7483.672363
3159.270508	7421.810547
3157.957031	7531.749512
3156.642578	7543.505859
3155.328125	7472.232910
3154.013672	7336.843750
3152.699219	7412.760742
3151.383789	7424.529785
3150.068359	7434.408691
3148.752930	7434.857422
3147.437500	7386.302734
3146.121094	7411.256836
3144.804688	7379.680664
3143.488281	7385.789063
3142.170898	7273.248047
3140.854492	7364.105469
3139.537109	7255.376465
3138.218750	7406.431641
3136.901367	7395.590820
3135.583008	7390.397949
3134.264648	7323.130859
3132.946289	7216.393555
3131.626953	7275.170410
3130.308594	7360.244141
3128.988281	7204.689453
3127.668945	7379.948730
3126.349609	7316.517090
3125.029297	7454.115234
3123.708984	7255.462891
3122.387695	7385.507324
3121.067383	7320.244629
3119.746094	7219.341797
3118.424805	7189.793945
3117.102539	7282.221680
3115.780273	7147.615234
3114.458984	7196.874512
3113.135742	7099.841797
3111.813477	7220.337891
3110.490234	7160.828613
3109.166992	7339.365723
3107.843750	7206.776367
3106.519531	7250.344238
3105.196289	7327.611328
3103.872070	7107.080566
3102.546875	7165.620605
3101.222656	7254.090332
3099.897461	7187.177246
3098.572266	7204.498047
3097.246094	7216.198730
3095.920898	7211.060059
3094.594727	7076.877930
3093.268555	7281.189941
3091.941406	7135.829102
3090.615234	7194.258301
3089.288086	7233.976563
3087.960938	7176.522949
3086.632813	7148.979492
3085.304688	7052.342285
3083.976563	7088.321289
3082.648438	7064.543945
3081.320313	7223.701172
3079.991211	7155.116211
3078.662109	6842.129395
3077.333008	7221.365723
3076.002930	7113.651855
3074.672852	7084.300781
3073.342773	7040.044922
3072.012695	7221.357422
3070.681641	6998.176758
3069.350586	7067.625977
3068.019531	7017.817383
3066.688477	7057.433105
3065.356445	7100.757813
3064.024414	7097.518066
3062.692383	7105.448242
3061.359375	7098.485840
3060.027344	7020.815430
3058.694336	7106.893555
3057.360352	7053.431641
3056.027344	6992.551270
3054.693359	7063.708984
3053.359375	6887.591309
3052.025391	7047.955566
3050.690430	7046.586914
3049.355469	6904.017090
3048.020508	7045.708008
3046.685547	7062.911621
3045.349609	6983.552734
3044.013672	7015.612793
3042.677734	7034.666992
3041.340820	6907.109375
3040.004883	6944.730469
3038.667969	6961.931641
3037.330078	7077.422852
3035.993164	7055.649902
3034.655273	6926.356445
3033.317383	6895.352539
3031.979492	7029.298340
3030.640625	6920.465332
3029.301758	7019.155762
3027.962891	6886.288574
3026.624023	6870.135254
3025.284180	6807.702148
3023.944336	6786.017090
3022.604492	6893.889160
3021.263672	6888.847656
3019.923828	6857.907715
3018.583008	6863.972656
3017.241211	6905.170410
3015.900391	6852.057617
3014.558594	6924.666992
3013.216797	6723.714844
3011.875000	6705.776367
3010.532227	6728.488281
3009.189453	6693.931152
3007.846680	6905.004883
3006.503906	6899.968262
3005.160156	6752.788574
3003.816406	6937.887207
3002.472656	6868.259766
3001.128906	6924.116211
2999.784180	6616.565430
2998.439453	6893.756836
2997.094727	6857.380859
2995.749023	6811.800781
2994.403320	6908.161621
2993.057617	6729.907227
2991.711914	6770.972656
2990.365234	6699.654785
2989.018555	6676.248535
2987.671875	6697.044434
2986.325195	6496.911133
2984.977539	6806.714355
2983.629883	6531.185059
2982.282227	6667.907227
2980.933594	6730.992676
2979.585938	6580.704590
2978.237305	6583.099609
2976.887695	6732.572754
2975.539063	6676.116211
2974.189453	6665.625977
2972.839844	6554.081055
2971.489258	6672.211914
2970.139648	6707.645020
2968.789063	6550.247559
2967.438477	6600.377930
2966.086914	6635.802734
2964.735352	6632.673340
2963.383789	6580.001953
2962.032227	6641.093262
2960.680664	6458.211914
2959.328125	6521.136230
2957.975586	6514.363281
2956.622070	6573.585449
2955.269531	6484.329590
2953.916016	6550.863281
2952.562500	6437.829590
2951.208008	6568.455078
2949.854492	6451.798340
2948.500000	6531.102051
2947.144531	6700.074707
2945.790039	6473.644043
2944.434570	6496.168945
2943.079102	6540.639160
2941.723633	6444.243652
2940.367188	6539.913086
2939.010742	6514.865723
2937.654297	6493.483887
2936.297852	6358.788574
2934.940430	6556.733887
2933.583008	6564.587891
2932.225586	6418.996582
2930.867188	6445.137207
2929.508789	6467.615723
2928.150391	6428.013672
2926.791992	6477.864746
2925.432617	6407.251953
2924.074219	6258.210938
2922.713867	6408.395508
2921.354492	6370.666016
2919.994141	6380.361328
2918.633789	6433.807617
2917.273438	6376.043945
2915.913086	6283.676270
2914.551758	6326.176758
2913.190430	6417.846191
2911.829102	6411.126953
2910.466797	6331.570313
2909.104492	6292.098633
2907.742188	6258.102539
2906.379883	6395.191895
2905.016602	6403.038574
2903.653320	6352.666992
2902.290039	6315.046875
2900.925781	6241.071289
2899.562500	6239.849609
2898.197266	6307.704102
2896.833008	6393.705566
2895.468750	6334.307617
2894.103516	6393.019531
2892.738281	6211.948242
2891.372070	6377.804199
2890.005859	6303.929199
2888.640625	6253.681641
2887.273438	6156.265625
2885.907227	6361.921875
2884.540039	6269.964355
2883.172852	6268.736328
2881.805664	6209.475586
2880.437500	6210.072266
2879.069336	6190.727539
2877.701172	6368.946777
2876.333008	6179.241211
2874.963867	6313.910645
2873.594727	6280.068359
2872.225586	6246.238770
2870.855469	6255.878418
2869.485352	6308.961914
2868.115234	6171.977539
2866.745117	6214.198242
2865.374023	6207.551758
2864.002930	6074.285156
2862.631836	6335.333008
2861.260742	6218.366211
2859.888672	6179.182129
2858.516602	6228.579590
2857.144531	6225.550781
2855.771484	6197.228027
2854.398438	6062.337402
2853.025391	6109.911621
2851.652344	6189.969727
2850.278320	6273.606445
2848.904297	6250.715332
2847.530273	6087.070801
2846.156250	6004.682617
2844.781250	6097.309082
2843.406250	6128.576660
2842.030273	6102.128418
2840.655273	6156.819336
2839.279297	6108.745117
2837.903320	6057.084961
2836.526367	5994.633789
2835.150391	6016.875488
2833.773438	6089.539063
2832.395508	6109.952148
2831.018555	5948.516602
2829.640625	6186.753906
2828.262695	6048.762207
2826.884766	6155.534180
2825.505859	5889.874023
2824.126953	5964.259277
2822.748047	6047.605957
2821.368164	6005.065430
2819.989258	6016.468262
2818.609375	6022.474609
2817.228516	6075.196777
2815.848633	5960.822266
2814.467773	5914.746094
2813.086914	5909.991699
2811.705078	5957.307129
2810.324219	6020.759277
2808.942383	5933.427246
2807.559570	6009.419434
2806.177734	5952.622070
2804.794922	5885.084961
2803.412109	5912.620605
2802.029297	5798.499512
2800.645508	6035.778320
2799.261719	5961.107910
2797.877930	5875.714355
2796.493164	5928.305176
2795.109375	5927.138672
2793.724609	5861.500977
2792.338867	5908.691406
2790.954102	5961.232910
2789.568359	5825.823730
2788.182617	5874.781738
2786.795898	5877.203125
2785.409180	5836.693848
2784.022461	5873.100586
2782.635742	5800.422363
2781.249023	5811.793945
2779.861328	5828.522949
2778.473633	5920.298340
2777.084961	5801.213867
2775.697266	5835.796875
2774.308594	5718.561523
2772.918945	5717.434570
2771.530273	5782.361816
2770.140625	5761.588867
2768.750977	5714.055664
2767.361328	5648.699219
2765.970703	5683.262207
2764.580078	5639.338867
2763.189453	5805.840332
2761.797852	5897.399902
2760.407227	5687.694336
2759.015625	5786.368652
2757.623047	5754.938965
2756.231445	5605.950684
2754.838867	5731.296875
2753.446289	5648.256348
2752.052734	5666.725586
2750.659180	5630.008789
2749.265625	5531.020020
2747.872070	5471.213379
2746.478516	5717.401855
2745.083984	5664.695313
2743.689453	5494.648438
2742.293945	5634.014648
2740.898438	5622.237793
2739.502930	5462.961426
2738.107422	5540.062500
2736.711914	5611.803223
2735.315430	5580.501953
2733.918945	5598.933594
2732.521484	5608.480469
2731.125000	5513.295410
2729.727539	5505.107910
2728.329102	5557.251465
2726.931641	5579.215820
2725.533203	5679.211426
2724.134766	5525.586426
2722.736328	5506.765625
2721.336914	5487.951660
2719.937500	5493.956543
2718.538086	5551.343262
2717.137695	5580.362793
2715.737305	5511.954590
2714.336914	5413.468750
2712.936523	5527.480957
2711.535156	5607.815430
2710.133789	5431.497070
2708.732422	5471.120605
2707.331055	5539.033691
2705.928711	5405.282715
2704.526367	5482.023438
2703.124023	5560.501465
2701.720703	5419.753906
2700.317383	5468.167969
2698.914063	5544.833984
2697.509766	5430.671875
2696.106445	5549.706055
2694.702148	5317.269043
2693.296875	5528.088867
2691.892578	5486.394043
2690.487305	5428.832031
2689.082031	5415.405762
2687.675781	5541.356445
2686.269531	5478.524902
2684.863281	5410.427734
2683.457031	5277.120117
2682.049805	5300.754883
2680.642578	5334.954590
2679.235352	5356.805664
2677.828125	5346.936035
2676.419922	5317.694824
2675.011719	5286.703613
2673.603516	5238.117676
2672.194336	5455.365234
2670.785156	5251.882813
2669.375977	5254.361816
2667.965820	5246.283691
2666.556641	5363.095215
2665.146484	5279.377441
2663.735352	5324.046875
2662.325195	5337.055176
2660.914063	5344.785156
2659.502930	5348.997559
2658.090820	5261.850586
2656.678711	5234.459473
2655.266602	5303.668945
2653.854492	5295.594238
2652.441406	5334.920410
2651.029297	5314.556152
2649.615234	5215.234375
2648.202148	5175.602539
2646.788086	5206.149902
2645.374023	5322.618164
2643.959961	5162.002930
2642.544922	5239.866699
2641.129883	5216.041992
2639.714844	5250.054199
2638.298828	5273.540527
2636.883789	5230.454590
2635.467773	5136.597168
2634.050781	5121.569824
2632.634766	5178.323730
2631.217773	5235.054688
2629.799805	5132.520508
2628.382813	5037.024414
2626.964844	5158.470215
2625.546875	5201.168457
2624.128906	5166.913574
2622.709961	5027.780762
2621.291016	5035.521484
2619.872070	5062.481445
2618.452148	5038.763184
2617.032227	5114.621094
2615.612305	5228.871094
2614.192383	5095.128418
2612.771484	5074.913086
2611.350586	5086.122559
2609.929688	4990.878418
2608.508789	5021.291504
2607.086914	4974.939941
2605.665039	5101.265137
2604.242188	5108.969727
2602.819336	5020.787598
2601.396484	5009.331543
2599.973633	5111.151367
2598.550781	5009.082031
2597.126953	5072.538086
2595.703125	5022.764648
2594.278320	5000.871094
2592.853516	4991.171875
2591.428711	5021.509277
2590.003906	4996.147461
2588.578125	4939.478027
2587.153320	4882.830566
2585.726563	4947.947754
2584.300781	4913.925781
2582.874023	5022.472168
2581.447266	4887.636230
2580.020508	4985.717773
2578.592773	4854.416992
2577.165039	4935.094727
2575.737305	4937.585938
2574.308594	4936.603027
2572.880859	4902.634766
2571.451172	4898.187500
2570.022461	4787.883789
2568.592773	4927.467285
2567.163086	4862.303223
2565.733398	4894.287109
2564.303711	4778.869141
2562.873047	4855.931152
2561.442383	4841.097168
2560.010742	4852.263672
2558.579102	4788.922852
2557.147461	4848.598145
2555.715820	4861.487305
2554.284180	4791.255859
2552.851563	4819.731445
2551.417969	4751.266602
2549.985352	4784.930176
2548.551758	4858.375000
2547.118164	4853.946777
2545.684570	4763.044922
2544.250000	4628.950195
2542.815430	4676.434082
2541.380859	4735.997559
2539.945313	4660.744141
2538.510742	4651.175781
2537.075195	4670.977051
2535.638672	4746.037109
2534.202148	4733.003418
2532.765625	4697.531250
2531.329102	4667.250977
2529.892578	4628.354004
2528.455078	4817.220703
2527.017578	4719.658203
2525.579102	4635.932129
2524.140625	4717.774902
2522.702148	4742.692871
2521.263672	4715.891602
2519.824219	4649.464844
2518.384766	4691.610352
2516.945313	4561.477539
2515.505859	4644.958008
2514.065430	4680.190918
2512.625000	4629.330078
2511.183594	4681.764160
2509.743164	4608.551270
2508.301758	4664.409180
2506.859375	4630.793457
2505.417969	4633.308105
2503.975586	4597.991699
2502.533203	4493.922852
2501.089844	4577.247559
2499.646484	4574.614258
2498.203125	4580.572754
2496.759766	4512.662598
2495.315430	4565.001953
2493.871094	4610.451660
2492.426758	4406.950684
2490.982422	4493.607422
2489.537109	4492.708984
2488.091797	4505.536621
2486.645508	4502.920410
2485.200195	4472.863770
2483.752930	4415.383789
2482.306641	4508.791016
2480.860352	4562.737793
2479.413086	4369.892578
2477.964844	4485.525391
2476.517578	4381.848145
2475.069336	4480.305176
2473.621094	4527.353516
2472.172852	4293.619629
2470.723633	4414.285645
2469.274414	4391.155273
2467.825195	4415.940430
2466.375000	4440.715820
2464.924805	4431.275391
2463.474609	4509.044434
2462.024414	4477.369141
2460.573242	4445.706543
2459.122070	4222.660645
2457.669922	4431.965820
2456.218750	4357.625488
2454.766602	4394.325684
2453.314453	4419.058105
2451.861328	4390.857910
2450.408203	4386.564941
2448.955078	4361.794922
2447.501953	4243.196777
2446.047852	4360.046875
2444.593750	4313.125488
2443.138672	4238.940918
2441.684570	4396.635742
2440.229492	4322.463867
2438.774414	4239.800293
2437.318359	4254.284180
2435.862305	4229.583496
2434.406250	4259.390625
2432.950195	4282.374512
2431.493164	4276.408691
2430.036133	4244.914063
2428.579102	4208.326660
2427.121094	4236.405762
2425.663086	4218.545898
2424.205078	4314.638672
2422.746094	4228.755859
2421.287109	4324.807129
2419.828125	4116.580566
2418.369141	4180.328613
2416.909180	4145.510254
2415.449219	4273.774902
2413.989258	4148.940918
2412.528320	4071.700195
2411.067383	4174.437500
2409.606445	4173.599121
2408.144531	4164.276367
2406.683594	4115.935547
2405.220703	4093.057861
2403.757813	4212.645508
2402.296875	4157.541016
2400.833984	4107.544434
2399.369141	4096.549805
2397.906250	4085.559570
2396.443359	4079.656250
2394.978516	4119.489258
2393.513672	4027.210938
2392.048828	4061.958740
2390.583984	4057.756592
2389.119141	4078.943604
2387.654297	4027.358887
2386.187500	4028.240967
2384.720703	4090.016357
2383.255859	4028.312744
2381.789063	3971.706055
2380.320313	4006.407227
2378.853516	4015.742432
2377.386719	4030.142822
2375.917969	4054.674072
2374.449219	3900.149658
2372.982422	4002.380127
2371.513672	3937.414551
2370.042969	4039.595947
2368.574219	3988.150635
2367.105469	4071.718506
2365.634766	3961.239746
2364.164063	3894.660156
2362.693359	3939.408691
2361.222656	3832.394531
2359.751953	3813.080322
2358.279297	3910.064453
2356.808594	3910.962158
2355.335938	3869.742188
2353.863281	3954.864990
2352.390625	3846.291748
2350.917969	3838.782471
2349.445313	3890.192627
2347.970703	3805.259277
2346.498047	3954.249512
2345.023438	3865.972168
2343.548828	3848.373535
2342.074219	3802.193848
2340.599609	3791.340088
2339.123047	3800.661865
2337.648438	3867.120850
2336.171875	3792.408936
2334.695313	3800.044189
2333.218750	3836.229736
2331.742188	3838.814941
2330.265625	3827.967529
2328.787109	3867.481934
2327.310547	3848.241455
2325.832031	3834.041992
2324.353516	3741.001953
2322.875000	3632.904053
2321.396484	3727.754883
2319.917969	3683.412354
2318.437500	3763.128174
2316.957031	3723.823486
2315.478516	3753.232178
2313.998047	3725.671387
2312.517578	3714.870361
2311.035156	3603.601318
2309.554688	3634.683838
2308.072266	3787.945557
2306.591797	3718.566406
2305.109375	3609.058838
2303.626953	3673.571289
2302.142578	3694.572266
2300.660156	3725.597412
2299.177734	3713.142334
2297.693359	3583.687500
2296.208984	3549.540527
2294.724609	3593.935791
2293.240234	3563.141113
2291.755859	3660.959961
2290.269531	3671.909180
2288.785156	3676.175781
2287.298828	3550.247803
2285.812500	3683.034180
2284.326172	3552.150146
2282.839844	3631.502197
2281.353516	3529.033203
2279.865234	3580.010986
2278.376953	3544.277832
2276.890625	3623.566650
2275.402344	3556.176514
2273.914063	3445.494873
2272.423828	3539.746826
2270.935547	3509.053223
2269.445313	3629.895264
2267.957031	3452.697266
2266.466797	3546.870605
2264.976563	3461.285156
2263.484375	3517.152100
2261.994141	3523.094238
2260.503906	3517.392090
2259.011719	3430.218262
2257.519531	3402.925781
2256.027344	3463.733398
2254.535156	3381.607910
2253.042969	3420.796875
2251.548828	3327.085449
2250.056641	3397.822754
2248.562500	3412.078369
2247.068359	3413.047607
2245.574219	3423.974365
2244.080078	3398.390381
2242.583984	3354.567383
2241.089844	3368.816162
2239.593750	3386.375977
2238.097656	3384.031982
2236.601563	3333.615723
2235.105469	3367.744873
2233.609375	3425.058105
2232.113281	3333.246582
2230.615234	3287.849854
2229.117188	3436.224609
2227.619141	3274.927490
2226.121094	3312.336670
2224.623047	3185.884766
2223.125000	3301.065918
2221.625000	3247.458008
2220.125000	3264.993408
2218.626953	3320.556152
2217.126953	3281.856201
2215.625000	3363.840332
2214.125000	3178.060303
2212.625000	3240.204102
2211.123047	3303.974365
2209.621094	3205.856689
2208.119141	3226.673340
2206.617188	3292.058105
2205.115234	3220.412109
2203.611328	3201.605225
2202.109375	3265.304688
2200.605469	3178.860596
2199.101563	3191.409912
2197.597656	3197.357910
2196.093750	3218.141113
2194.589844	3118.589600
2193.083984	3127.844238
2191.580078	3186.524170
2190.074219	3115.043213
2188.568359	3086.412109
2187.062500	3189.522949
2185.554688	3104.914063
2184.048828	3130.618896
2182.541016	3088.842285
2181.035156	3056.954102
2179.527344	3233.988525
2178.019531	3144.521729
2176.509766	3186.634277
2175.001953	3077.485596
2173.494141	3104.801758
2171.984375	3092.667725
2170.474609	3138.041748
2168.964844	3074.984375
2167.455078	3028.375244
2165.943359	3031.043457
2164.433594	2986.103516
2162.921875	3047.864990
2161.412109	3063.654785
2159.900391	2954.750977
2158.386719	3047.645996
2156.875000	3053.585938
2155.363281	3016.893311
2153.849609	3047.425781
2152.335938	3114.002686
2150.824219	3096.982910
2149.310547	2994.779297
2147.794922	2967.962646
2146.281250	3003.386230
2144.765625	2956.931152
2143.251953	2989.068115
2141.736328	3089.929932
2140.220703	3074.574219
2138.705078	2915.261230
2137.187500	2945.744385
2135.671875	3054.708496
2134.154297	2960.894287
2132.636719	3046.925781
2131.121094	3023.425293
2129.601563	2980.326660
2128.083984	2898.038818
2126.566406	2920.314453
2125.046875	2985.037354
2123.527344	2963.205078
2122.007813	2864.664063
2120.488281	2833.073242
2118.968750	2930.393066
2117.449219	2944.477539
2115.927734	2826.448486
2114.408203	2847.070313
2112.886719	2813.884033
2111.365234	2862.209229
2109.843750	2791.551514
2108.320313	2807.275391
2106.798828	2938.648682
2105.275391	2796.358643
2103.751953	2896.742676
2102.228516	2761.030762
2100.705078	2869.519043
2099.181641	2849.406006
2097.656250	2891.125732
2096.132813	2919.815430
2094.607422	2815.135986
2093.082031	2916.997803
2091.556641	2779.848633
2090.031250	2701.266113
2088.503906	2721.839600
2086.978516	2771.647949
2085.451172	2707.733887
2083.923828	2710.428955
2082.396484	2727.735840
2080.869141	2696.335693
2079.341797	2737.982666
2077.812500	2682.253174
2076.283203	2733.619629
2074.755859	2679.535645
2073.226563	2732.502930
2071.697266	2658.984863
2070.166016	2685.998535
2068.636719	2706.518555
2067.105469	2684.901123
2065.574219	2697.312256
2064.042969	2712.957764
2062.511719	2731.835449
2060.980469	2685.944580
2059.447266	2604.461426
2057.916016	2667.044678
2056.382813	2579.126221
2054.849609	2699.925781
2053.316406	2569.984863
2051.783203	2716.608887
2050.248047	2623.901367
2048.714844	2599.119141
2047.179688	2663.229004
2045.644531	2589.977539
2044.109375	2552.293945
2042.574219	2551.771729
2041.039063	2636.829590
2039.501953	2555.570557
2037.964844	2550.205566
2036.429688	2636.824707
2034.892578	2566.908936
2033.353516	2516.378662
2031.816406	2598.112793
2030.279297	2534.697266
2028.740234	2542.238525
2027.201172	2509.483154
2025.662109	2454.181396
2024.123047	2539.066162
2022.583984	2586.868652
2021.042969	2607.274170
2019.503906	2458.611572
2017.962891	2516.059326
2016.421875	2386.789307
2014.880859	2506.982910
2013.337891	2512.904297
2011.796875	2470.569824
2010.253906	2495.793457
2008.712891	2484.027344
2007.169922	2456.191406
2005.626953	2410.688477
2004.082031	2437.509766
2002.539063	2441.829346
2000.994141	2463.814697
1999.451172	2463.309326
1997.906250	2388.952393
1996.361328	2374.015869
1994.816406	2477.842285
1993.269531	2440.430908
1991.724609	2476.825928
1990.177734	2396.126221
1988.630859	2361.960938
1987.083984	2401.555664
1985.537109	2383.431641
1983.990234	2384.544922
1982.441406	2364.829346
1980.892578	2353.130859
1979.343750	2400.693848
1977.794922	2310.533691
1976.246094	2442.931885
1974.697266	2356.000977
1973.146484	2368.318848
1971.597656	2339.034668
1970.046875	2308.162598
1968.496094	2248.517090
1966.945313	2328.000244
1965.394531	2365.887695
1963.841797	2320.650879
1962.289063	2283.422119
1960.738281	2274.965088
1959.185547	2308.040039
1957.632813	2289.999512
1956.078125	2286.335693
1954.525391	2360.890625
1952.970703	2291.779785
1951.416016	2150.894043
1949.863281	2250.955322
1948.306641	2216.998291
1946.751953	2315.409912
1945.197266	2219.275391
1943.640625	2183.751465
1942.083984	2259.797607
1940.527344	2227.466309
1938.970703	2255.682129
1937.414063	2210.623291
1935.857422	2269.085205
1934.298828	2306.826660
1932.740234	2233.134521
1931.181641	2223.126709
1929.623047	2240.170654
1928.064453	2225.393311
1926.505859	2232.887207
1924.945313	2127.484375
1923.384766	2268.531494
1921.826172	2158.396240
1920.263672	2288.255371
1918.703125	2176.572510
1917.142578	2187.243164
1915.580078	2148.678711
1914.019531	2137.121826
1912.457031	2150.968506
1910.894531	2071.170410
1909.330078	2137.388184
1907.767578	2151.226074
1906.203125	2171.402344
1904.640625	2124.966797
1903.076172	2154.652832
1901.511719	2181.156250
1899.947266	2096.711426
1898.380859	2189.764160
1896.816406	2087.926514
1895.250000	2117.588867
1893.683594	2150.406006
1892.117188	2146.796143
1890.550781	2059.296387
1888.984375	2168.066406
1887.416016	2177.112549
1885.847656	2118.134033
1884.281250	2063.924316
1882.712891	2061.917480
1881.142578	2070.977295
1879.574219	2127.450684
1878.003906	2021.135254
1876.435547	2109.193848
1874.865234	2067.688965
1873.294922	1981.981812
1871.724609	2073.151367
1870.152344	1992.213989
1868.582031	2067.560791
1867.009766	2075.023682
1865.437500	2003.601563
1863.865234	1940.095337
1862.292969	1953.887573
1860.720703	1958.214111
1859.146484	2035.050171
1857.574219	1954.253296
1856.000000	2005.847168
1854.425781	2032.213867
1852.851563	1960.917480
1851.275391	1977.834229
1849.701172	1985.297485
1848.125000	1903.036133
1846.548828	1998.640625
1844.972656	1940.011475
1843.396484	1931.744995
1841.820313	2011.556274
1840.242188	1992.271240
1838.664063	1957.273071
1837.087891	1938.006958
1835.509766	2009.893188
1833.929688	1923.065308
1832.351563	1905.388794
1830.773438	1864.162109
1829.193359	2020.792236
1827.613281	1853.972046
1826.033203	1913.229736
1824.453125	1923.818237
1822.871094	1989.312134
1821.291016	1869.692017
1819.708984	1916.351318
1818.126953	1878.325562
1816.544922	1910.855469
1814.962891	1836.799927
1813.380859	1850.521851
1811.796875	1876.770752
1810.214844	1882.647217
1808.630859	1865.032104
1807.046875	1852.120972
1805.460938	1898.696045
1803.876953	1834.139282
1802.292969	1838.453247
1800.707031	1870.923096
1799.121094	1876.791504
1797.535156	1871.711670
1795.949219	1833.803589
1794.361328	1891.255371
1792.775391	1843.982544
1791.187500	1859.224121
1789.599609	1824.473633
1788.011719	1835.027588
1786.423828	1856.506836
1784.835938	1759.335083
1783.246094	1808.914429
1781.656250	1782.012085
1780.066406	1823.765381
1778.476563	1862.381836
1776.886719	1846.401001
1775.296875	1802.362183
1773.705078	1767.694458
1772.113281	1750.184326
1770.523438	1832.404053
1768.929688	1855.391479
1767.337891	1789.590698
1765.746094	1782.990479
1764.152344	1807.530518
1762.558594	1772.911255
1760.966797	1781.880615
1759.371094	1756.616211
1757.777344	1877.586914
1756.183594	1774.550049
1754.587891	1777.291504
1752.992188	1748.939453
1751.396484	1750.130493
1749.800781	1731.119385
1748.205078	1744.742676
1746.609375	1795.639893
1745.011719	1723.828857
1743.414063	1760.734985
1741.816406	1718.455688
1740.218750	1746.035156
1738.621094	1751.879150
1737.021484	1691.010986
1735.423828	1701.516968
1733.824219	1743.033325
1732.224609	1742.671021
1730.625000	1725.257690
1729.023438	1678.405762
1727.423828	1699.749146
1725.822266	1660.667480
1724.220703	1669.614990
1722.619141	1725.013306
1721.017578	1634.860962
1719.416016	1688.695435
1717.812500	1708.461914
1716.210938	1698.823242
1714.607422	1706.204224
1713.003906	1643.987061
1711.400391	1648.283569
1709.794922	1655.670166
1708.191406	1669.235840
1706.585938	1658.071533
1704.980469	1580.479126
1703.375000	1706.809326
1701.769531	1681.745117
1700.164063	1608.827881
1698.556641	1617.754883
1696.949219	1645.198120
1695.341797	1623.253174
1693.734375	1632.171265
1692.126953	1622.577148
1690.519531	1617.612915
1688.910156	1666.611328
1687.300781	1686.302490
1685.691406	1618.143188
1684.082031	1627.050659
1682.472656	1623.630615
1680.861328	1606.350952
1679.251953	1564.441406
1677.640625	1597.983887
1676.029297	1534.545166
1674.417969	1588.084717
1672.806641	1653.910034
1671.193359	1533.585571
1669.580078	1610.159668
1667.968750	1563.697144
1666.355469	1567.982666
1664.740234	1563.044922
1663.126953	1544.279663
1661.513672	1537.812500
1659.898438	1591.250122
1658.283203	1569.419189
1656.667969	1559.879761
1655.052734	1525.784424
1653.435547	1494.772461
1651.820313	1506.735352
1650.203125	1534.033447
1648.585938	1542.915527
1646.968750	1550.260376
1645.351563	1502.411377
1643.732422	1489.835693
1642.115234	1572.276001
1640.496094	1499.938354
1638.876953	1519.538330
1637.257813	1502.374756
1635.638672	1491.342896
1634.017578	1454.291382
1632.398438	1571.837036
1630.777344	1490.408325
1629.156250	1509.985229
1627.535156	1506.610596
1625.912109	1536.880493
1624.291016	1481.518311
1622.667969	1491.908813
1621.044922	1447.276978
1619.421875	1466.837769
1617.798828	1512.360229
1616.175781	1473.861084
1614.550781	1458.282837
1612.927734	1483.931396
1611.302734	1431.724854
1609.677734	1509.253418
1608.050781	1492.154785
1606.425781	1406.420166
1604.798828	1427.477051
1603.173828	1463.772705
1601.546875	1452.795288
1599.919922	1454.015503
1598.291016	1452.187378
1596.664063	1454.930420
1595.035156	1439.394165
1593.406250	1428.432861
1591.777344	1423.566284
1590.148438	1427.834839
1588.519531	1444.276733
1586.888672	1387.676025
1585.259766	1410.204224
1583.628906	1432.723022
1581.998047	1397.448608
1580.367188	1401.716797
1578.734375	1443.982666
1577.103516	1417.845825
1575.470703	1429.703491
1573.837891	1400.542480
1572.205078	1426.067017
1570.572266	1428.804932
1568.937500	1416.360840
1567.304688	1443.383545
1565.669922	1424.871826
1564.035156	1391.196533
1562.400391	1406.072754
1560.765625	1372.415405
1559.128906	1370.611450
1557.492188	1383.966553
1555.857422	1342.757080
1554.220703	1372.779663
1552.582031	1324.015137
1550.945313	1349.485107
1549.308594	1391.601196
1547.669922	1395.851074
1546.031250	1354.690430
1544.392578	1407.371704
1542.753906	1367.738770
1541.113281	1352.324951
1539.474609	1385.312866
1537.833984	1395.606201
1536.193359	1378.684326
1534.552734	1354.212524
1532.910156	1322.195557
1531.269531	1335.514771
1529.626953	1350.338745
1527.986328	1362.136108
1526.343750	1325.614502
1524.699219	1295.146240
1523.056641	1285.819092
1521.412109	1284.040039
1519.769531	1309.415527
1518.125000	1321.206177
1516.480469	1271.167480
1514.835938	1340.249634
1513.189453	1269.125977
1511.544922	1297.491455
1509.898438	1339.404663
1508.251953	1312.009155
1506.605469	1340.347534
1504.957031	1329.525757
1503.310547	1256.988281
1501.662109	1277.794678
1500.013672	1268.497437
1498.365234	1317.876709
1496.716797	1281.500854
1495.068359	1269.200928
1493.417969	1291.486084
1491.769531	1286.704834
1490.119141	1304.468262
1488.468750	1230.569824
1486.816406	1239.324097
1485.166016	1278.112549
1483.513672	1190.751953
1481.861328	1252.052979
1480.208984	1239.781860
1478.556641	1302.547363
1476.904297	1266.265503
1475.250000	1189.498901
1473.597656	1193.747437
1471.943359	1238.477051
1470.289063	1212.732300
1468.634766	1203.484375
1466.978516	1225.707153
1465.324219	1240.429932
1463.667969	1228.186279
1462.011719	1235.414795
1460.355469	1191.736938
1458.699219	1195.976318
1457.041016	1224.158203
1455.382813	1201.457031
1453.726563	1151.839111
1452.068359	1153.091919
1450.408203	1218.640381
1448.750000	1207.918823
1447.089844	1203.180176
1445.431641	1226.835449
1443.771484	1210.142700
1442.111328	1221.836914
1440.451172	1200.671997
1438.789063	1269.099365
1437.126953	1194.194458
1435.466797	1179.018188
1433.804688	1183.245728
1432.142578	1129.291260
1430.478516	1169.322998
1428.816406	1139.252808
1427.152344	1165.847656
1425.488281	1187.959595
1423.824219	1227.944824
1422.160156	1166.599243
1420.494141	1191.676025
1418.830078	1119.938965
1417.164063	1156.926514
1415.498047	1114.999878
1413.832031	1156.437866
1412.166016	1168.097778
1410.498047	1114.293457
1408.830078	1139.343750
1407.164063	1137.615845
1405.494141	1089.798950
1403.826172	1163.891235
1402.158203	1142.839233
1400.488281	1117.338745
1398.818359	1148.298218
1397.150391	1149.540649
1395.478516	1140.388306
1393.808594	1107.486694
1392.138672	1096.862793
1390.466797	1112.954102
1388.794922	1111.235107
1387.123047	1124.349854
1385.451172	1128.561035
1383.777344	1141.666382
1382.105469	1077.682983
1380.431641	1098.203735
1378.757813	1139.460083
1377.083984	1156.996094
1375.410156	1107.874390
1373.734375	1094.312744
1372.060547	1119.249390
1370.384766	1110.131348
1368.708984	1123.215088
1367.033203	1060.836304
1365.355469	1104.988647
1363.679688	1073.697266
1362.001953	1070.512695
1360.324219	1086.547241
1358.646484	1089.273071
1356.968750	1041.756836
1355.289063	1084.379517
1353.609375	1087.103760
1351.931641	1054.385376
1350.250000	1036.444946
1348.570313	1059.843018
1346.890625	1038.957275
1345.208984	1052.016357
1343.529297	1031.140991
1341.847656	1076.642822
1340.164063	1063.143677
1338.482422	1096.825562
1336.800781	1075.958130
1335.117188	1087.518799
1333.433594	1048.982544
1331.750000	1069.381836
1330.066406	1035.283691
1328.382813	1049.787598
1326.697266	1064.285278
1325.011719	1077.304932
1323.326172	1038.819580
1321.640625	1081.261108
1319.955078	975.134644
1318.267578	1052.863037
1316.582031	1055.579956
1314.894531	1045.066895
1313.207031	1021.332275
1311.517578	1016.707764
1309.830078	969.486450
1308.140625	1025.087646
1306.453125	1049.830933
1304.763672	1055.479858
1303.072266	1003.887207
1301.382813	989.000366
1299.693359	985.856140
1298.001953	1026.715332
1296.310547	1064.624146
1294.619141	994.024536
1292.927734	980.621033
1291.234375	993.602051
1289.542969	1000.716736
1287.849609	1001.968872
1286.156250	1022.259644
1284.462891	1013.256836
1282.767578	1014.505310
1281.074219	983.553528
1279.378906	984.807678
1277.683594	1003.617249
1275.988281	928.806702
1274.292969	949.082397
1272.595703	975.197632
1270.900391	942.831604
1269.203125	936.785217
1267.505859	980.419800
1265.808594	971.446228
1264.109375	966.857971
1262.412109	994.395996
1260.712891	940.168396
1259.013672	937.049133
1257.314453	878.478943
1255.613281	1002.303223
1253.914063	937.909363
1252.212891	930.417969
1250.511719	924.387695
1248.810547	946.056519
1247.109375	926.908752
1245.408203	896.112366
1243.705078	913.402832
1242.001953	970.010620
1240.298828	926.119080
1238.595703	889.525452
1236.892578	934.457642
1235.187500	942.989868
1233.482422	923.874878
1231.777344	938.224060
1230.072266	878.397705
1228.367188	956.725952
1226.662109	917.272583
1224.955078	905.450012
1223.248047	916.881348
1221.541016	899.252808
1219.833984	900.513428
1218.125000	945.337402
1216.417969	913.195679
1214.708984	923.161438
1213.000000	886.684387
1211.291016	941.629089
1209.580078	896.460083
1207.871094	932.525574
1206.160156	867.078186
1204.449219	897.335815
1202.738281	946.421997
1201.027344	938.974731
1199.314453	927.184448
1197.603516	867.601379
1195.890625	865.968018
1194.177734	890.395630
1192.464844	874.283081
1190.750000	824.892212
1189.037109	884.037659
1187.322266	902.654114
1185.607422	863.412415
1183.892578	895.038696
1182.177734	845.695862
1180.460938	864.304321
1178.744141	817.879089
1177.027344	849.487854
1175.310547	885.416199
1173.593750	876.562378
1171.876953	882.150085
1170.158203	877.631042
1168.439453	874.557007
1166.720703	822.427246
1165.001953	855.429871
1163.281250	862.458069
1161.562500	870.925171
1159.841797	867.855591
1158.121094	854.698120
1156.400391	857.397217
1154.677734	838.484741
1152.957031	810.937927
1151.234375	839.565918
1149.511719	829.307861
1147.789063	843.524902
1146.066406	844.783508
1144.341797	870.501831
1142.619141	801.265625
1140.894531	789.588196
1139.169922	823.929260
1137.445313	823.752808
1135.718750	790.518311
1133.994141	833.458923
1132.267578	778.686157
1130.541016	818.737976
1128.814453	853.028381
1127.085938	848.538269
1125.359375	776.583496
1123.630859	833.823120
1121.902344	754.727966
1120.173828	816.251221
1118.443359	811.773560
1116.714844	834.542236
1114.984375	785.620422
1113.253906	796.918457
1111.523438	792.448547
1109.792969	830.961243
1108.060547	792.108643
1106.330078	740.383972
1104.597656	800.359436
1102.865234	774.421387
1101.132813	787.135681
1099.398438	775.519958
1097.666016	798.242188
1095.931641	808.082520
1094.197266	742.132385
1092.462891	757.698914
1090.726563	794.698425
1088.992188	813.104919
1087.255859	755.782349
1085.519531	755.620056
1083.783203	774.022888
1082.046875	742.445496
1080.308594	779.400330
1078.570313	792.077393
1076.833984	771.931213
1075.093750	756.073303
1073.355469	784.435791
1071.617188	781.415344
1069.876953	727.073303
1068.136719	746.871643
1066.396484	775.211548
1064.656250	739.427063
1062.914063	747.814575
1061.173828	699.234314
1059.431641	713.321899
1057.689453	734.520874
1055.947266	757.133850
1054.203125	775.468445
1052.460938	751.117920
1050.716797	750.956360
1048.972656	766.436401
1047.228516	786.174683
1045.484375	790.269531
1043.738281	770.204895
1041.992188	774.301392
1040.246094	738.623962
1038.500000	798.110229
1036.753906	813.556458
1035.005859	809.122803
1033.259766	773.468384
1031.511719	793.166504
1029.763672	760.367981
1028.015625	825.445618
1026.265625	785.564270
1024.515625	810.913330
1022.767578	783.808533
1021.015625	819.066406
1019.265625	852.892334
1017.515625	815.880615
1015.763672	875.183289
1014.011719	873.578857
1012.259766	863.481750
1010.507813	877.448059
1008.755859	871.599182
1007.001953	925.167175
1005.248047	917.896118
1003.494141	875.277649
1001.740234	924.568909
999.986328	942.743835
998.230469	945.366760
996.476563	925.383667
994.720703	977.446350
992.962891	1097.271606
991.207031	1087.151733
989.451172	1132.087769
987.693359	1263.092163
985.935547	1298.093872
984.177734	1269.600464
982.419922	1277.788574
980.660156	1253.541748
978.900391	1280.056519
977.140625	1238.906128
975.380859	1224.547119
973.621094	1252.459595
971.861328	1245.146484
970.099609	1242.061035
968.337891	1310.781250
966.576172	1210.556885
964.814453	1211.702637
963.050781	1243.802246
961.289063	1229.466431
959.525391	1234.826416
957.761719	1244.402222
955.998047	1228.669556
954.232422	1190.455566
952.466797	1188.793091
950.703125	1236.302368
948.937500	1213.561646
947.169922	1214.703613
945.404297	1250.944336
943.636719	1243.655518
941.871094	1270.050537
940.103516	1192.607178
938.335938	1179.724365
936.566406	1061.662476
934.798828	1027.781006
933.029297	963.073364
931.259766	958.660339
929.490234	867.371826
927.718750	809.745422
925.949219	784.358643
924.177734	785.589233
922.406250	750.418335
920.634766	769.852112
918.863281	754.291687
917.089844	747.132751
915.316406	739.976868
913.542969	710.447693
911.769531	755.036743
909.996094	770.250244
908.220703	758.902527
906.447266	772.711182
904.671875	730.633606
902.896484	737.458801
901.119141	712.163818
899.343750	752.496277
897.566406	748.145813
895.789063	717.282837
894.011719	735.264771
892.234375	721.156494
890.455078	722.394714
888.677734	740.363770
886.898438	691.413940
885.119141	712.169128
883.337891	689.720703
881.558594	682.605713
879.777344	710.313049
877.996094	661.422546
876.214844	700.259705
874.433594	727.945068
872.650391	720.829285
870.869141	662.239868
869.085938	721.907349
867.302734	723.141357
865.519531	703.519409
863.734375	710.316895
861.951172	714.331970
860.166016	757.249756
858.380859	707.075989
856.593750	694.422852
854.808594	734.539795
853.021484	684.403503
851.234375	728.668945
849.447266	699.370239
847.660156	658.985474
845.873047	681.034851
844.083984	703.074646
842.294922	701.535400
840.505859	723.561035
838.716797	748.348694
836.925781	730.174133
835.136719	743.867676
833.345703	765.864807
831.554688	767.082886
829.763672	739.229553
827.970703	784.741577
826.179688	838.536072
824.386719	818.985779
822.593750	811.892029
820.798828	811.715393
819.005859	825.363953
817.210938	808.597717
815.417969	852.643127
813.621094	770.942200
811.826172	787.350159
810.031250	748.510376
808.234375	793.911011
806.437500	750.945313
804.640625	804.606262
802.843750	785.113647
801.046875	738.039246
799.248047	740.636963
797.449219	780.464050
795.650391	767.886536
793.851563	764.962646
792.050781	753.771912
790.251953	778.406433
788.451172	845.729919
786.650391	841.414307
784.849609	824.709229
783.046875	865.824768
781.244141	856.002563
779.443359	814.538635
777.640625	873.512268
775.835938	858.193420
774.033203	829.131042
772.228516	797.331909
770.423828	821.897400
768.619141	806.602905
766.814453	840.772217
765.009766	854.323914
763.203125	856.883972
761.396484	897.884338
759.589844	890.825317
757.783203	886.513977
755.974609	883.576477
754.167969	887.498779
752.359375	939.418762
750.550781	951.553711
748.740234	906.109070
746.931641	918.245850
745.121094	909.824036
743.310547	846.609131
741.500000	836.836914
739.689453	829.807495
737.876953	784.448547
736.066406	767.852539
734.253906	812.842712
732.441406	723.737061
730.626953	755.038879
728.814453	697.437805
727.000000	732.833252
725.185547	717.636902
723.371094	743.445923
721.556641	729.620117
719.740234	719.898376
717.925781	704.717896
716.109375	640.388428
714.291016	679.837280
712.474609	689.242432
710.658203	648.155518
708.839844	694.397888
707.021484	683.334412
705.203125	694.094055
703.382813	698.032227
701.564453	661.077209
699.744141	622.775635
697.923828	667.600159
696.103516	676.989075
694.283203	648.241943
692.460938	644.015381
690.638672	634.345520
688.816406	631.484741
686.994141	604.133240
685.171875	620.325256
683.347656	614.749146
681.523438	679.883240
679.699219	670.218018
677.875000	652.401978
676.050781	621.004944
674.224609	643.964661
672.398438	687.288391
670.572266	681.705872
668.746094	621.818420
666.917969	656.974121
665.091797	629.688354
663.263672	611.912048
661.435547	625.342773
659.607422	629.274231
657.777344	589.815186
655.947266	626.287048
654.119141	618.017822
652.287109	666.662476
650.457031	685.482117
648.626953	651.471436
646.794922	675.702515
644.962891	695.861511
643.130859	688.941162
641.298828	688.789978
639.464844	735.991150
637.630859	787.229431
635.796875	823.569580
633.962891	815.276550
632.128906	771.841919
630.292969	860.867493
628.458984	849.869263
626.623047	891.558838
624.785156	929.178406
622.949219	870.913391
621.111328	853.172607
619.275391	861.083130
617.437500	837.954712
615.597656	833.723389
613.759766	834.888916
611.919922	837.402344
610.080078	861.485474
608.240234	865.339722
606.400391	878.625305
604.560547	897.294189
602.718750	907.872803
600.876953	910.366516
599.035156	962.675903
597.193359	985.347900
595.349609	981.093750
593.507813	962.040710
591.664063	995.459473
589.820313	1040.967651
587.974609	1019.224670
586.130859	974.637512
584.285156	989.207336
582.439453	943.302612
580.593750	955.185913
578.748047	936.171570
576.900391	1007.136475
575.052734	934.416809
573.205078	911.392700
571.357422	955.476685
569.509766	976.732910
567.660156	1028.831177
565.810547	960.209717
563.960938	973.406006
562.111328	949.062805
560.259766	905.967590
558.410156	909.787659
556.558594	880.115967
554.707031	891.975708
552.855469	886.423035
551.001953	844.727539
549.148438	849.894958
547.294922	847.031372
545.441406	846.844543
543.587891	864.045715
541.732422	942.752136
539.878906	893.077332
538.023438	994.465515
536.167969	1034.336670
534.310547	1079.534424
532.455078	1243.595093
530.597656	1447.647217
528.740234	1823.846558
526.882813	2724.487061
525.023438	5613.259766
523.166016	12127.354492
521.306641	19242.873047
519.447266	17160.718750
517.585938	8103.105957
515.726563	3470.088379
513.865234	2016.551758
512.003906	1501.752686
510.142578	1213.659668
508.281250	1057.555420
506.417969	952.122192
504.556641	907.977417
502.693359	851.872681
500.828125	837.046082
498.964844	787.633972
497.101563	739.573792
495.236328	746.059692
493.371094	769.827209
491.505859	719.144104
489.638672	717.656067
487.771484	692.252136
485.906250	684.128601
484.039063	718.508179
482.169922	674.531250
480.302734	686.329773
478.433594	711.395264
476.564453	711.237915
474.695313	692.507507
472.826172	774.587891
470.955078	799.611572
469.083984	848.487732
467.212891	889.389465
465.341797	939.549255
463.470703	981.737427
461.597656	984.169250
459.724609	1062.084717
457.851563	1134.669678
455.978516	1293.263428
454.105469	1322.092041
452.230469	1358.846680
450.355469	1386.325073
448.480469	1356.922119
446.605469	1327.532104
444.728516	1345.745239
442.851563	1373.201782
440.976563	1283.044678
439.097656	1306.539551
437.220703	1290.400513
435.341797	1286.153076
433.464844	1213.257202
431.585938	1215.628052
429.705078	1191.605469
427.826172	1200.576416
425.945313	1300.555786
424.064453	1217.187378
422.183594	1182.638062
420.302734	1270.691284
418.421875	1319.169922
416.539063	1459.856079
414.656250	1721.668213
412.773438	2194.080078
410.888672	2944.102295
409.005859	4800.875488
407.121094	7524.132324
405.236328	8461.947266
403.351563	6949.858887
401.464844	5488.419434
399.580078	4191.995117
397.693359	2989.485352
395.806641	2196.271240
393.917969	1626.798096
392.031250	1510.825684
390.142578	1742.974121
388.253906	2803.634521
386.365234	5132.070801
384.476563	6250.573242
382.585938	4603.556641
380.695313	2425.907715
378.804688	1595.050293
376.914063	1312.738770
375.023438	1260.001465
373.130859	1207.287598
371.238281	1108.727661
369.345703	1071.793701
367.453125	1057.145630
365.558594	996.665283
363.666016	930.974182
361.771484	947.785278
359.875000	901.766235
357.980469	832.214355
356.083984	829.412720
354.189453	816.148804
352.292969	821.197693
350.394531	805.326721
348.498047	724.109863
346.599609	760.538086
344.701172	790.417664
342.802734	778.486023
340.904297	754.806519
339.003906	746.804810
337.105469	738.806580
335.205078	725.591797
333.302734	726.734863
331.402344	738.312866
329.500000	700.328003
327.597656	741.895447
325.695313	703.926575
323.792969	664.671387
321.890625	721.854614
319.986328	686.520874
318.082031	717.625549
316.177734	710.954956
314.271484	705.589111
312.367188	730.160950
310.460938	749.516724
308.554688	740.242859
306.648438	760.888367
304.740234	789.326843
302.833984	761.848938
300.925781	727.884338
299.017578	735.518921
297.107422	698.976746
295.199219	681.934753
293.289063	689.574341
291.378906	725.773987
289.468750	681.478149
287.556641	695.601379
285.646484	725.287903
283.734375	670.644226
281.822266	674.385132
279.910156	608.107605
277.996094	666.305969
276.082031	662.269043
274.167969	642.684998
272.253906	632.177856
270.339844	608.723755
268.423828	613.767151
266.507813	633.048645
264.591797	658.792908
262.675781	670.291626
260.759766	606.749939
258.841797	645.416931
256.923828	614.237427
255.005859	616.685730
253.085938	616.547852
251.167969	626.748047
249.248047	627.899780
247.328125	570.925171
245.408203	643.115601
243.486328	635.225098
241.566406	624.756348
239.644531	611.711243
237.722656	614.154785
235.798828	615.307312
233.876953	628.066162
231.953125	633.083069
230.029297	663.879395
228.105469	677.907471
226.179688	658.428040
224.253906	669.874512
222.330078	660.708984
220.402344	661.848633
218.476563	653.976196
216.550781	673.135681
214.623047	684.565857
212.695313	654.823181
210.767578	695.834839
208.837891	658.387390
206.908203	656.954224
204.980469	638.812195
203.048828	673.365295
201.119141	651.373413
199.189453	693.614929
197.257813	661.354736
195.326172	662.490295
193.394531	663.625305
191.460938	668.609741
189.529297	665.893677
187.595703	669.592529
185.662109	683.549255
183.726563	694.935425
181.792969	657.604919
179.857422	625.417480
177.921875	640.652710
175.986328	604.640442
174.048828	589.135925
172.113281	614.612488
170.175781	595.272156
168.238281	611.776733
166.298828	600.123108
164.361328	589.753967
162.421875	633.107666
160.482422	621.456970
158.542969	621.317322
156.601563	651.853149
154.662109	644.039551
152.720703	666.891052
150.779297	646.304626
148.835938	593.802551
146.894531	623.033386
144.951172	619.064026
143.007813	611.268005
141.064453	570.303467
139.119141	566.348572
137.175781	547.092102
135.230469	549.518982
133.285156	518.802612
131.337891	527.606750
129.392578	537.681030
127.445313	541.381592
125.498047	529.797791
123.550781	547.504272
121.601563	507.918671
119.652344	528.167419
117.705078	480.969513
115.753906	489.766052
113.804688	470.578278
111.853516	420.881989
109.904297	434.771057
107.953125	352.059814
106.000000	283.363373
104.048828	227.401886
