#Wave		#Intensity
5504.711914	2006.363037
5503.824219	2129.315674
5502.936523	2106.600098
5502.048828	1938.634521
5501.160156	2114.258301
5500.272461	1991.027954
5499.383789	2060.487061
5498.496094	1878.686157
5497.607422	2026.289429
5496.718750	2031.523682
5495.830078	2000.485229
5494.940430	2111.726807
5494.051758	2130.889160
5493.162109	1985.514893
5492.272461	2021.421265
5491.382813	2115.856689
5490.493164	2062.537354
5489.603516	2106.771973
5488.712891	2042.327393
5487.823242	2117.193848
5486.932617	2049.984131
5486.041992	2105.329590
5485.151367	2079.909912
5484.260742	2004.389160
5483.369141	2107.031494
5482.478516	2078.841553
5481.586914	2006.141968
5480.695313	2092.039307
5479.803711	2077.773438
5478.912109	2044.045532
5478.020508	2096.525635
5477.127930	2112.846924
5476.236328	2026.317749
5475.343750	2067.657227
5474.451172	2042.295288
5473.558594	2028.054565
5472.666016	2111.037598
5471.772461	2155.111084
5470.879883	2129.751221
5469.986328	2165.477539
5469.092773	2054.075439
5468.199219	2181.387207
5467.305664	2150.490234
5466.411133	2116.829590
5465.517578	2174.718018
5464.623047	2215.946289
5463.728516	2223.885254
5462.833984	2137.558105
5461.939453	2148.279541
5461.044922	2161.768799
5460.150391	2111.519775
5459.254883	2133.322021
5458.359375	2149.576904
5457.463867	2129.821045
5456.568359	2151.608887
5455.672852	2156.777100
5454.777344	2220.075195
5453.880859	2139.431396
5452.984375	2136.297119
5452.087891	2135.930664
5451.191406	2190.889893
5450.294922	2171.153564
5449.398438	2248.210205
5448.500977	2225.705811
5447.604492	2250.203369
5446.707031	2252.581299
5445.809570	2130.604004
5444.912109	2265.623291
5444.013672	2190.647461
5443.116211	2190.271484
5442.217773	2189.895752
5441.320313	2131.537842
5440.421875	2153.256592
5439.523438	2224.649902
5438.624023	2124.921143
5437.725586	2301.143066
5436.826172	2242.815674
5435.927734	2162.442383
5435.028320	2079.338867
5434.128906	2167.214600
5433.229492	2169.599365
5432.329102	2216.084473
5431.429688	2262.553467
5430.529297	2171.237549
5429.628906	2234.227539
5428.728516	2206.299561
5427.828125	2263.753906
5426.927734	2235.830322
5426.026367	2279.494629
5425.125977	2237.814941
5424.224609	2242.934814
5423.323242	2253.555908
5422.421875	2297.186768
5421.520508	2134.503906
5420.618164	2263.395752
5419.716797	2265.756592
5418.814453	2276.364258
5417.912109	2295.214600
5417.009766	2275.582275
5416.107422	2214.739258
5415.205078	2354.473389
5414.301758	2307.371826
5413.399414	2238.315430
5412.496094	2287.357422
5411.592773	2168.909912
5410.689453	2426.565674
5409.785156	2343.813232
5408.881836	2313.226074
5407.977539	2356.725586
5407.073242	2337.118652
5406.168945	2287.349854
5405.264648	2369.221191
5404.360352	2420.905762
5403.456055	2324.547363
5402.550781	2370.740234
5401.645508	2315.527344
5400.740234	2424.720947
5399.834961	2246.247803
5398.929688	2319.810791
5398.024414	2245.475586
5397.118164	2291.633789
5396.212891	2318.614258
5395.306641	2315.478516
5394.400391	2271.296143
5393.493164	2432.331299
5392.586914	2410.028564
5391.680664	2423.289551
5390.773438	2411.934082
5389.866211	2362.304443
5388.958984	2422.039063
5388.051758	2375.157959
5387.144531	2347.421875
5386.236328	2377.072998
5385.329102	2365.736572
5384.420898	2332.553711
5383.512695	2364.922607
5382.604492	2394.549805
5381.696289	2344.999268
5380.787109	2374.619629
5379.878906	2376.939941
5378.969727	2461.114502
5378.060547	2302.464600
5377.151367	2342.981934
5376.242188	2473.479492
5375.332031	2456.693848
5374.422852	2385.390625
5373.512695	2393.156982
5372.602539	2469.051270
5371.692383	2487.699463
5370.782227	2329.262695
5369.872070	2456.880859
5368.960938	2391.097412
5368.050781	2447.866211
5367.139648	2474.668701
5366.228516	2501.461914
5365.317383	2618.054199
5364.405273	2432.575195
5363.494141	2445.758789
5362.582031	2477.978271
5361.669922	2425.879150
5360.757813	2466.248047
5359.845703	2427.761963
5358.933594	2476.271240
5358.021484	2532.916748
5357.108398	2431.941895
5356.195313	2553.778320
5355.282227	2509.877197
5354.369141	2528.455566
5353.456055	2549.742920
5352.542969	2514.009521
5351.628906	2548.864014
5350.714844	2580.992432
5349.801758	2591.401611
5348.887695	2558.398438
5347.972656	2506.418701
5347.058594	2535.819580
5346.143555	2630.289795
5345.229492	2529.523193
5344.314453	2548.062012
5343.399414	2590.986328
5342.484375	2533.634521
5341.568359	2541.325439
5340.653320	2576.102051
5339.737305	2507.948730
5338.821289	2515.639893
5337.905273	2553.110107
5336.989258	2604.102051
5336.073242	2571.175049
5335.157227	2643.794434
5334.240234	2532.410156
5333.323242	2507.627441
5332.406250	2707.337646
5331.489258	2612.224854
5330.572266	2557.700195
5329.654297	2600.510498
5328.737305	2670.333740
5327.819336	2610.422363
5326.901367	2701.834473
5325.983398	2650.042236
5325.065430	2541.548828
5324.146484	2643.726807
5323.228516	2581.171143
5322.309570	2599.622314
5321.390625	2612.668701
5320.471680	2587.930664
5319.552734	2692.709961
5318.632813	2681.454590
5317.713867	2605.470703
5316.793945	2710.192627
5315.874023	2685.458496
5314.954102	2728.127441
5314.034180	2695.312500
5313.114258	2702.931641
5312.193359	2608.161621
5311.272461	2728.937500
5310.352539	2752.707275
5309.431641	2601.424561
5308.509766	2757.141602
5307.588867	2740.512939
5306.667969	2799.254639
5305.746094	2677.670410
5304.824219	2693.351807
5303.902344	2649.843506
5302.980469	2700.490479
5302.058594	2622.035400
5301.135742	2793.665527
5300.213867	2750.169434
5299.291016	2779.260986
5298.368164	2695.470947
5297.445313	2762.178955
5296.521484	2742.896240
5295.598633	2745.108154
5294.674805	2795.659180
5293.750977	2768.325195
5292.827148	2741.000488
5291.903320	2735.158203
5290.979492	2691.746338
5290.055664	2844.225342
5289.130859	2782.030029
5288.206055	2687.668213
5287.281250	2770.340576
5286.356445	2740.366455
5285.431641	2782.787354
5284.506836	2833.234619
5283.581055	2755.025146
5282.655273	2872.447754
5281.729492	2770.146729
5280.803711	3016.098389
5279.877930	2804.004395
5278.952148	2827.618408
5278.025391	2867.287354
5277.098633	2917.649414
5276.171875	2855.590332
5275.245117	2908.612793
5274.318359	2921.486328
5273.391602	2838.059326
5272.463867	2869.661377
5271.536133	2930.666016
5270.609375	2785.789795
5269.680664	2814.711182
5268.752930	2891.728760
5267.825195	2952.687012
5266.896484	2882.713135
5265.968750	2786.051270
5265.040039	2817.617920
5264.111328	2875.875977
5263.182617	2907.415771
5262.252930	2890.896484
5261.324219	2903.740479
5260.394531	2940.595703
5259.464844	2902.735107
5258.535156	2867.555176
5257.605469	2872.392822
5256.675781	2973.225098
5255.745117	2959.379639
5254.814453	3041.502197
5253.883789	2894.390381
5252.953125	3040.448730
5252.022461	2872.073730
5251.091797	2898.214355
5250.160156	2998.919189
5249.229492	2931.827881
5248.297852	3053.791016
5247.366211	2941.459961
5246.434570	2978.211426
5245.501953	2988.339600
5244.570313	2905.343994
5243.637695	3027.205811
5242.705078	3053.277832
5241.772461	2911.811768
5240.839844	3084.124512
5239.907227	3017.133301
5238.973633	3106.975830
5238.041016	3034.688965
5237.107422	3004.937256
5236.173828	3028.324219
5235.240234	2990.615967
5234.305664	2939.642822
5233.372070	3109.056152
5232.437500	3055.425537
5231.502930	3107.978271
5230.568359	3075.595459
5229.633789	3053.836426
5228.699219	3103.709229
5227.764648	2986.470459
5226.829102	3028.381836
5225.893555	3078.232422
5224.958008	2995.520752
5224.022461	3032.107422
5223.086914	3119.031006
5222.150391	3057.551025
5221.213867	3094.107422
5220.278320	3027.355713
5219.341797	3098.330322
5218.405273	2946.874756
5217.467773	3017.838623
5216.531250	3160.240479
5215.593750	3138.521729
5214.656250	3045.372559
5213.718750	3026.326416
5212.781250	3105.149170
5211.843750	3072.876465
5210.905273	3035.327148
5209.967773	3196.057129
5209.029297	3137.354248
5208.090820	3062.815918
5207.152344	3191.750977
5206.212891	3045.902344
5205.274414	3074.427490
5204.334961	3203.293213
5203.396484	3189.535400
5202.457031	3125.624268
5201.516602	3130.360596
5200.577148	3282.877197
5199.637695	3218.982910
5198.697266	3202.595703
5197.756836	3204.677002
5196.816406	3230.491943
5195.875977	3248.387451
5194.935547	3258.368164
5193.994141	3186.636719
5193.053711	3275.683594
5192.112305	3269.844971
5191.170898	3248.201660
5190.229492	3150.181885
5189.287109	3347.145264
5188.345703	3196.481689
5187.403320	3280.168213
5186.460938	3079.558594
5185.518555	3281.660156
5184.576172	3204.785400
5183.633789	3120.045166
5182.690430	3361.488037
5181.748047	3303.047852
5180.804688	3257.774658
5179.861328	3354.477783
5178.917969	3219.843994
5177.973633	3237.680176
5177.030273	3357.983887
5176.085938	3131.471680
5175.141602	3309.537354
5174.197266	3371.989746
5173.252930	3353.023438
5172.308594	3176.549072
5171.363281	3359.731934
5170.418945	3254.174316
5169.473633	3408.417236
5168.528320	3331.745361
5167.582031	3344.280762
5166.636719	3304.361328
5165.691406	3267.077881
5164.745117	3405.454102
5163.798828	3221.382080
5162.852539	3372.821289
5161.906250	3251.704102
5160.958984	3345.450195
5160.012695	3279.385254
5159.065430	3375.712402
5158.118164	3293.954590
5157.170898	3356.212158
5156.223633	3373.950439
5155.276367	3467.576904
5154.328125	3419.874756
5153.379883	3382.653809
5152.432617	3457.919678
5151.484375	3355.324219
5150.535156	3532.543945
5149.586914	3322.784424
5148.637695	3447.670898
5147.689453	3410.483154
5146.740234	3370.695313
5145.791016	3372.720947
5144.840820	3382.581787
5143.891602	3392.439209
5142.941406	3459.737549
5141.992188	3388.647217
5141.041992	3505.516602
5140.091797	3533.613525
5139.140625	3559.091064
5138.190430	3433.246338
5137.239258	3411.781250
5136.289063	3411.187012
5135.337891	3478.387451
5134.386719	3477.781494
5133.434570	3615.324219
5132.483398	3526.086182
5131.531250	3517.654785
5130.579102	3587.382568
5129.627930	3547.686035
5128.674805	3633.010010
5127.722656	3637.584717
5126.770508	3509.384033
5125.817383	3571.243164
5124.864258	3484.738525
5123.911133	3689.692383
5122.958008	3540.758789
5122.004883	3675.400391
5121.050781	3703.367188
5120.097656	3554.508789
5119.143555	3535.690674
5118.189453	3737.821045
5117.235352	3664.401123
5116.280273	3603.998779
5115.326172	3728.072266
5114.371094	3607.937012
5113.416016	3638.472412
5112.460938	3741.701904
5111.505859	3655.376465
5110.550781	3691.078613
5109.594727	3654.101318
5108.639648	3728.712891
5107.683594	3712.496338
5106.727539	3768.914307
5105.770508	3765.663330
5104.814453	3777.971191
5103.857422	3816.199951
5102.901367	3753.324463
5101.944336	3838.192871
5100.987305	3687.235352
5100.030273	3696.954834
5099.072266	3745.524658
5098.115234	3848.463623
5097.157227	3739.038574
5096.199219	3844.531494
5095.241211	3688.552734
5094.282227	3667.204834
5093.324219	3917.557617
5092.365234	3797.866943
5091.407227	3717.017578
5090.448242	3853.437256
5089.489258	3770.020508
5088.529297	3828.824219
5087.570313	3812.646484
5086.610352	3848.162109
5085.650391	3772.555908
5084.690430	3792.564941
5083.730469	3828.065186
5082.770508	4059.829590
5081.809570	3738.935303
5080.849609	3857.039795
5079.888672	3833.135010
5078.927734	3734.395508
5077.966797	3896.304199
5077.004883	3854.345459
5076.043945	3889.783936
5075.082031	3822.050781
5074.120117	3911.631592
5073.158203	3944.463135
5072.196289	3917.997559
5071.234375	3958.547607
5070.271484	3978.469727
5069.308594	3859.265625
5068.345703	3943.593262
5067.382813	3927.451660
5066.419922	3944.789795
5065.457031	3956.972412
5064.493164	3881.634033
5063.529297	3886.102539
5062.565430	4026.945068
5061.601563	3974.787598
5060.637695	4040.970459
5059.673828	3952.823242
5058.708984	3949.560791
5057.744141	4008.000244
5056.779297	3878.777832
5055.814453	4142.807617
5054.849609	4067.566406
5053.883789	4071.993164
5052.918945	4043.025879
5051.953125	4080.841553
5050.987305	4023.637451
5050.020508	4130.759277
5049.054688	4063.299072
5048.088867	4036.924316
5047.122070	4072.141113
5046.155273	4084.255859
5045.188477	4078.411133
5044.221680	4075.132813
5043.253906	4064.163086
5042.287109	4035.251221
5041.319336	4088.373047
5040.351563	4021.024902
5039.383789	4209.934570
5038.416016	4093.912354
5037.447266	4072.704102
5036.479492	4238.456055
5035.510742	4255.638184
5034.541992	4190.890137
5033.573242	4136.403809
5032.604492	4225.251953
5031.634766	4168.219238
5030.665039	4251.913574
5029.696289	4194.895996
5028.726563	4178.816895
5027.755859	4229.224121
5026.786133	4256.604980
5025.815430	4232.854980
5024.845703	4219.335449
5023.875000	4157.271973
5022.904297	4547.416992
5021.933594	4337.169434
5020.961914	4226.594727
5019.991211	4340.756836
5019.019531	4135.760742
5018.047852	4349.445313
5017.076172	4241.497559
5016.104492	4332.611816
5015.131836	4421.142578
5014.160156	4377.005859
5013.187500	4335.434570
5012.214844	4286.228516
5011.242188	4374.704590
5010.268555	4521.774902
5009.295898	4401.204102
5008.322266	4293.415527
5007.348633	4476.088379
5006.375000	4332.664551
5005.401367	4365.011719
5004.427734	4430.448242
5003.453125	4320.202637
5002.479492	4461.983887
5001.504883	4405.213867
5000.530273	4396.807617
4999.554688	4510.516602
4998.580078	4390.178223
4997.604492	4470.788086
4996.629883	4531.027344
4995.654297	4367.530762
4994.678711	4437.934082
4993.702148	4338.043945
4992.726563	4477.031250
4991.750000	4397.492188
4990.773438	4554.199707
4989.796875	4395.949219
4988.820313	4567.836426
4987.843750	4549.264160
4986.866211	4500.239746
4985.889648	4522.289551
4984.912109	4633.137695
4983.934570	4462.354004
4982.957031	4542.736328
4981.978516	4526.723145
4981.000977	4439.720215
4980.022461	4694.984863
4979.043945	4559.824219
4978.065430	4637.583984
4977.086914	4558.223145
4976.107422	4671.421875
4975.127930	4574.352539
4974.149414	4738.156738
4973.169922	4668.960938
4972.189453	4685.861816
4971.209961	4555.953125
4970.230469	4669.031738
4969.250000	4612.547363
4968.269531	4700.278320
4967.289063	4613.456543
4966.308594	4691.040527
4965.327148	4654.818359
4964.346680	4674.224609
4963.365234	4723.953613
4962.383789	4755.975586
4961.402344	4646.494141
4960.420898	4739.146973
4959.438477	4634.758301
4958.457031	4649.095703
4957.474609	4769.472168
4956.492188	4907.477051
4955.509766	4878.850586
4954.527344	4809.857422
4953.543945	4809.011719
4952.560547	4861.142090
4951.577148	4880.464844
4950.593750	4819.084473
4949.610352	4825.801270
4948.626953	4807.306152
4947.642578	4924.921387
4946.658203	4808.135742
4945.674805	4764.458008
4944.689453	4955.071777
4943.705078	4956.718750
4942.720703	4799.717285
4941.735352	4917.208496
4940.750000	4921.377930
4939.764648	5016.153809
4938.779297	4985.074219
4937.793945	4818.141113
4936.807617	4963.195801
4935.821289	4979.928223
4934.835938	5034.374512
4933.849609	4968.118652
4932.862305	4932.051270
4931.875977	4873.376465
4930.888672	5093.654297
4929.902344	5112.857422
4928.915039	4903.459961
4927.926758	5101.011230
4926.939453	4994.645508
4925.952148	5109.258301
4924.963867	4925.110352
4923.975586	5112.479004
4922.987305	5119.106934
4921.999023	5103.151855
4921.010742	5089.710938
4920.021484	5116.402832
4919.032227	5306.079590
4918.042969	5202.351563
4917.053711	5116.207031
4916.064453	5015.054688
4915.075195	5264.754883
4914.084961	5178.644043
4913.094727	5395.662598
4912.104492	5041.576172
4911.114258	5373.729004
4910.124023	5230.075195
4909.132813	5174.083984
4908.142578	5280.790039
4907.151367	5234.817871
4906.160156	5251.408691
4905.167969	5237.976074
4904.176758	5329.589355
4903.184570	5443.674805
4902.193359	5245.207520
4901.201172	5226.785156
4900.208984	5198.372559
4899.215820	5369.871582
4898.223633	5416.393066
4897.230469	5278.054199
4896.237305	5369.529297
4895.244141	5328.630371
4894.250977	5360.145996
4893.257813	5244.378906
4892.263672	5378.221680
4891.269531	5437.159180
4890.275391	5398.777832
4889.281250	5562.454590
4888.287109	5459.222168
4887.292969	5433.324219
4886.297852	5494.691895
4885.302734	5458.826172
4884.307617	5410.511719
4883.312500	5479.325684
4882.317383	5378.707031
4881.321289	5572.044922
4880.325195	5471.444824
4879.329102	5507.829102
4878.333008	5661.208496
4877.336914	5647.763672
4876.340820	5604.459961
4875.343750	5548.729980
4874.346680	5716.919434
4873.349609	5698.499023
4872.352539	5568.174316
4871.355469	5619.406738
4870.357422	5789.950195
4869.360352	5853.553223
4868.362305	5653.708008
4867.364258	5680.041504
4866.365234	5795.799316
4865.367188	5869.290527
4864.368164	5930.338867
4863.370117	5725.689453
4862.371094	5841.356445
4861.371094	5656.650879
4860.372070	5625.872070
4859.373047	5828.336914
4858.373047	5770.249512
4857.373047	5927.971191
4856.373047	5641.736816
4855.373047	5846.534180
4854.372070	5840.542969
4853.372070	5837.032715
4852.371094	5833.522949
4851.370117	5978.676270
4850.369141	5982.574219
4849.368164	5956.748535
4848.366211	5955.695801
4847.364258	5825.894043
4846.363281	5891.702637
4845.361328	6049.065430
4844.358398	5830.229004
4843.356445	6029.607910
4842.353516	5951.855469
4841.351563	5923.596680
4840.348633	6112.960938
4839.344727	6052.541504
4838.341797	5947.646973
4837.338867	6070.173340
4836.334961	5928.245117
4835.331055	6132.264648
4834.327148	5980.494141
4833.323242	6122.686035
4832.318359	6064.807129
4831.314453	6189.650391
4830.309570	6094.751953
4829.304688	6261.502930
4828.299805	6169.092285
4827.294922	6172.935547
4826.289063	6164.442871
4825.284180	6123.890625
4824.278320	6174.590820
4823.272461	6230.203613
4822.265625	6295.656250
4821.259766	6070.265137
4820.252930	6263.858398
4819.247070	6279.995605
4818.240234	6377.414551
4817.233398	6299.937988
4816.225586	6220.025879
4815.218750	6250.930176
4814.210938	6281.823242
4813.203125	6322.549316
4812.195313	6257.452637
4811.187500	6266.185547
4810.179688	6390.524902
4809.170898	6377.096680
4808.162109	6496.454102
4807.153320	6278.957031
4806.144531	6400.747070
4805.135742	6340.630859
4804.125977	6570.481934
4803.117188	6436.653809
4802.107422	6511.659180
4801.097656	6399.991211
4800.086914	6435.688965
4799.077148	6441.913574
4798.066406	6602.772949
4797.055664	6552.520508
4796.045898	6543.998047
4795.034180	6535.478516
4794.023438	6706.018066
4793.011719	6346.780762
4792.000977	6458.445313
4790.989258	6562.715820
4789.977539	6581.161133
4788.965820	6499.123047
4787.953125	6674.386230
4786.940430	6599.709473
4785.928711	6745.500000
4784.916016	6839.811523
4783.902344	6745.556641
4782.889648	6543.620605
4781.876953	6799.459473
4780.863281	6783.570313
4779.849609	6691.837891
4778.835938	6680.865234
4777.821289	6694.355469
4776.807617	6632.032227
4775.792969	6745.770996
4774.779297	6671.236816
4773.763672	6738.489258
4772.749023	6751.955566
4771.734375	6824.055664
4770.718750	6847.273438
4769.704102	6723.937988
4768.688477	6793.562012
4767.671875	6902.225586
4766.656250	6969.351074
4765.640625	7053.537598
4764.624023	6754.576660
4763.607422	6972.959961
4762.590820	7108.327148
4761.574219	6982.679199
4760.556641	6888.776367
4759.540039	6997.266602
4758.522461	6969.209961
4757.504883	6960.660645
4756.487305	6922.873047
4755.468750	6999.606445
4754.451172	6981.312012
4753.432617	6975.201172
4752.414063	6920.391602
4751.395508	6931.335449
4750.376953	7100.496582
4749.357422	7070.030273
4748.338867	7297.505371
4747.319336	7077.250000
4746.299805	6993.289063
4745.280273	7077.166992
4744.259766	7139.130859
4743.240234	7213.228027
4742.219727	7221.668945
4741.199219	7113.452637
4740.178711	7197.233398
4739.158203	7220.248535
4738.136719	7311.267090
4737.115234	7275.967285
4736.094727	7264.961426
4735.073242	7154.423828
4734.050781	7398.305664
4733.029297	7256.233887
4732.006836	7303.471680
4730.984375	7362.822266
4729.961914	7463.385742
4728.939453	7457.208496
4727.916992	7489.827637
4726.893555	7481.222656
4725.871094	7467.772949
4724.847656	7553.686523
4723.824219	7564.458008
4722.799805	7463.789063
4721.776367	7377.687988
4720.751953	7666.974609
4719.727539	7362.957031
4718.703125	7729.607910
4717.678711	7534.603516
4716.654297	7523.583008
4715.628906	7652.897461
4714.603516	7595.896973
4713.578125	7713.058594
4712.552734	7643.975586
4711.527344	7613.601563
4710.500977	7617.081055
4709.474609	7748.656250
4708.449219	7769.025391
4707.421875	7639.590820
4706.395508	7879.793945
4705.369141	7699.666016
4704.341797	7700.709961
4703.314453	7675.195313
4702.287109	7765.557129
4701.259766	7894.501953
4700.231445	7852.074219
4699.204102	7698.680664
4698.175781	7837.216797
4697.147461	7727.291016
4696.119141	7976.693359
4695.090820	7972.861816
4694.061523	7783.424316
4693.032227	7950.740723
4692.002930	8024.022461
4690.973633	7998.500488
4689.944336	8023.571777
4688.915039	8116.066895
4687.884766	7864.199219
4686.854492	8149.286621
4685.824219	8114.135254
4684.793945	8014.018066
4683.762695	8209.896484
4682.732422	8068.899414
4681.701172	8202.159180
4680.669922	8215.126953
4679.638672	8256.942383
4678.607422	8190.561035
4677.575195	8251.594727
4676.542969	8259.736328
4675.510742	8253.458008
4674.478516	8403.332031
4673.446289	8445.067383
4672.413086	8400.334961
4671.380859	8322.003906
4670.347656	8385.335938
4669.314453	8499.048828
4668.281250	8353.546875
4667.247070	8544.002930
4666.213867	8357.763672
4665.179688	8361.069336
4664.145508	8481.877930
4663.111328	8629.016602
4662.076172	8366.183594
4661.041992	8623.540039
4660.006836	8693.891602
4658.971680	8555.773438
4657.936523	8630.901367
4656.900391	8559.904297
4655.865234	8409.910156
4654.829102	8719.654297
4653.792969	8679.796875
4652.756836	8625.593750
4651.720703	8810.701172
4650.684570	8763.670898
4649.647461	8752.538086
4648.610352	8760.541016
4647.573242	8699.197266
4646.536133	8766.975586
4645.498047	8712.822266
4644.460938	8818.812500
4643.422852	8900.870117
4642.384766	9018.733398
4641.346680	8871.415039
4640.308594	8977.299805
4639.269531	8954.206055
4638.230469	8857.111328
4637.191406	8805.403320
4636.152344	9016.229492
4635.113281	9148.239258
4634.073242	9039.250000
4633.034180	9028.093750
4631.994141	9107.563477
4630.954102	9203.694336
4629.914063	9197.282227
4628.873047	9372.018555
4627.832031	9091.520508
4626.791992	9132.783203
4625.750977	9100.181641
4624.708984	9000.900391
4623.667969	9106.453125
4622.625977	9254.826172
4621.584961	9226.985352
4620.542969	9263.416992
4619.500000	9421.200195
4618.458008	9390.963867
4617.416016	9201.355469
4616.373047	9411.388672
4615.330078	9340.743164
4614.287109	9374.736328
4613.244141	9339.779297
4612.200195	9354.745117
4611.156250	9288.911133
4610.112305	9396.539063
4609.068359	9280.836914
4608.024414	9609.302734
4606.980469	9351.127930
4605.935547	9591.619141
4604.890625	9483.083984
4603.845703	9528.853516
4602.800781	9586.469727
4601.754883	9546.793945
4600.709961	9599.642578
4599.664063	9666.700195
4598.618164	9536.925781
4597.572266	9585.003906
4596.526367	9801.359375
4595.479492	9809.083984
4594.432617	9558.531250
4593.385742	9601.831055
4592.338867	9796.708984
4591.291992	9794.955078
4590.244141	9838.188477
4589.197266	9805.650391
4588.149414	9832.297852
4587.101563	9764.273438
4586.052734	9790.916992
4585.004883	9888.521484
4583.956055	10239.171875
4582.907227	10050.516602
4581.858398	9911.580078
4580.809570	9853.068359
4579.759766	9948.208984
4578.710938	10128.386719
4577.661133	10095.856445
4576.611328	10146.017578
4575.561523	9985.954102
4574.510742	10130.573242
4573.460938	10086.258789
4572.410156	9933.372070
4571.359375	10051.959961
4570.308594	10243.657227
4569.256836	10206.430664
4568.206055	10214.036133
4567.154297	10346.637695
4566.102539	10175.001953
4565.050781	10331.138672
4563.999023	10508.433594
4562.946289	10475.911133
4561.893555	10139.427734
4560.840820	10208.287109
4559.788086	10364.275391
4558.735352	10324.735352
4557.681641	10584.250977
4556.628906	10469.348633
4555.575195	10366.254883
4554.521484	10517.366211
4553.467773	10487.243164
4552.413086	10499.476563
4551.358398	10521.113281
4550.304688	10563.908203
4549.249023	10331.584961
4548.194336	10611.834961
4547.139648	10687.495117
4546.083984	10506.974609
4545.028320	10627.267578
4543.972656	10707.581055
4542.916992	10834.840820
4541.861328	10802.366211
4540.804688	10805.122070
4539.748047	10742.147461
4538.691406	10909.208008
4537.634766	11017.541016
4536.578125	10813.786133
4535.520508	10774.310547
4534.462891	10849.773438
4533.405273	11047.146484
4532.347656	11054.540039
4531.290039	10972.853516
4530.231445	11015.413086
4529.173828	10933.761719
4528.115234	11025.511719
4527.055664	11145.337891
4525.997070	11012.181641
4524.938477	11073.425781
4523.878906	11209.565430
4522.819336	11020.290039
4521.759766	11030.010742
4520.700195	11065.466797
4519.639648	11042.421875
4518.579102	11260.309570
4517.519531	11148.369141
4516.458008	11211.834961
4515.397461	11209.819336
4514.336914	11301.298828
4513.275391	11404.430664
4512.213867	11234.147461
4511.152344	11447.051758
4510.090820	11538.420898
4509.028320	11328.504883
4507.966797	11235.407227
4506.904297	11564.877930
4505.841797	11716.843750
4504.779297	11740.406250
4503.715820	11665.964844
4502.653320	11502.904297
4501.589844	11619.784180
4500.526367	11410.151367
4499.461914	11692.542969
4498.398438	11804.662109
4497.333984	11541.501953
4496.270508	11639.625977
4495.206055	11709.755859
4494.140625	11821.789063
4493.076172	11849.938477
4492.010742	11822.190430
4490.946289	11661.748047
4489.880859	12092.607422
4488.815430	12062.501953
4487.749023	11771.794922
4486.683594	11927.875977
4485.617188	11958.291992
4484.550781	12267.775391
4483.484375	12049.319336
4482.416992	12028.550781
4481.350586	12089.142578
4480.283203	12175.276367
4479.215820	12166.112305
4478.148438	12317.247070
4477.081055	12231.410156
4476.012695	12233.851563
4474.944336	12463.834961
4473.875977	12203.906250
4472.807617	12352.575195
4471.739258	12278.410156
4470.669922	12610.306641
4469.601563	12394.613281
4468.532227	12448.043945
4467.462891	12441.162109
4466.392578	12420.371094
4465.323242	12513.174805
4464.252930	12610.580078
4463.182617	12573.546875
4462.112305	12557.378906
4461.041992	12849.302734
4459.970703	12763.608398
4458.900391	12842.353516
4457.829102	12809.939453
4456.757813	12631.707031
4455.685547	12835.406250
4454.614258	12840.033203
4453.541992	12728.981445
4452.469727	12937.176758
4451.397461	12784.518555
4450.325195	12766.026367
4449.251953	12779.906250
4448.179688	13117.380859
4447.106445	12964.797852
4446.033203	12828.443359
4444.959961	13131.072266
4443.885742	13031.692383
4442.811523	13054.743164
4441.738281	13070.858398
4440.663086	12941.531250
4439.588867	13167.696289
4438.514648	13158.396484
4437.439453	13119.104492
4436.364258	13268.987305
4435.289063	13243.527344
4434.213867	13301.092773
4433.137695	13220.300781
4432.062500	13264.016602
4430.986328	13416.041016
4429.910156	13231.574219
4428.833984	13560.950195
4427.756836	13549.287109
4426.680664	13459.321289
4425.603516	13493.733398
4424.526367	13594.897461
4423.448242	13564.819336
4422.371094	13647.521484
4421.292969	13697.979492
4420.214844	13849.644531
4419.136719	13706.830078
4418.058594	13646.858398
4416.980469	13812.245117
4415.901367	13805.151367
4414.822266	13954.358398
4413.743164	13843.825195
4412.664063	13891.872070
4411.583984	13875.577148
4410.504883	13765.115234
4409.424805	13620.247070
4408.344727	13978.261719
4407.264648	14014.759766
4406.183594	14110.918945
4405.103516	13872.003906
4404.022461	14131.054688
4402.941406	14011.506836
4401.859375	13960.807617
4400.778320	14155.492188
4399.696289	14036.002930
4398.614258	14063.263672
4397.532227	14344.913086
4396.450195	14298.780273
4395.368164	14401.581055
4394.285156	14243.211914
4393.202148	14295.599609
4392.119141	14203.709961
4391.036133	14432.369141
4389.952148	14338.197266
4388.869141	14134.208008
4387.785156	14548.094727
4386.701172	14458.526367
4385.617188	14632.034180
4384.532227	14633.958984
4383.448242	14562.713867
4382.363281	14772.683594
4381.278320	14738.009766
4380.192383	14739.911133
4379.107422	14618.429688
4378.021484	14693.453125
4376.935547	14910.057617
4375.849609	15003.268555
4374.763672	14916.073242
4373.677734	14705.638672
4372.590820	14789.705078
4371.503906	14898.840820
4370.416992	15026.189453
4369.330078	15158.052734
4368.242188	15182.674805
4367.154297	14917.690430
4366.067383	15414.281250
4364.979492	15194.938477
4363.890625	15114.696289
4362.802734	15187.152344
4361.713867	15314.258789
4360.625000	15126.979492
4359.536133	15283.656250
4358.447266	15151.096680
4357.357422	15362.348633
4356.268555	15213.888672
4355.178711	15295.333008
4354.088867	15192.444336
4352.998047	15303.436523
4351.908203	15403.013672
4350.817383	15393.398438
4349.726563	15488.375000
4348.635742	15301.430664
4347.544922	15521.395508
4346.453125	15570.846680
4345.361328	15727.065430
4344.269531	15665.149414
4343.177734	15730.444336
4342.085938	15679.903320
4340.993164	15722.465820
4339.901367	15812.681641
4338.808594	15687.255859
4337.715820	15881.825195
4336.622070	16049.099609
4335.529297	16043.917969
4334.435547	15938.949219
4333.341797	15843.087891
4332.248047	15942.231445
4331.154297	15955.204102
4330.059570	15947.775391
4328.964844	16155.604492
4327.870117	16195.714844
4326.775391	15877.933594
4325.680664	16144.541016
4324.584961	16243.499023
4323.489258	16000.585938
4322.393555	16008.997070
4321.297852	16028.718750
4320.202148	16428.544922
4319.105469	16500.212891
4318.008789	16576.376953
4316.912109	16494.216797
4315.815430	16421.132813
4314.718750	16422.669922
4313.621094	16650.216797
4312.523438	16473.193359
4311.425781	16429.533203
4310.328125	16485.277344
4309.229492	16579.396484
4308.131836	16750.251953
4307.033203	16693.025391
4305.934570	16965.373047
4304.835938	16835.906250
4303.736328	16724.537109
4302.636719	16744.056641
4301.538086	16925.970703
4300.437500	17004.080078
4299.337891	16933.345703
4298.238281	16835.582031
4297.137695	16960.996094
4296.037109	16888.050781
4294.936523	17103.533203
4293.835938	17021.578125
4292.734375	17164.880859
4291.632813	17195.537109
4290.532227	17320.744141
4289.429688	16982.181641
4288.328125	17021.855469
4287.225586	17329.294922
4286.124023	17085.406250
4285.021484	17397.218750
4283.918945	17090.433594
4282.815430	17390.886719
4281.712891	17423.693359
4280.609375	17346.343750
4279.505859	17565.679688
4278.402344	17396.205078
4277.297852	17375.064453
4276.194336	17733.535156
4275.089844	17662.933594
4273.985352	17430.691406
4272.880859	17723.849609
4271.775391	17790.203125
4270.670898	17555.818359
4269.565430	17678.269531
4268.459961	17764.781250
4267.354492	17743.603516
4266.248047	17978.076172
4265.141602	17779.738281
4264.036133	18155.343750
4262.929688	17815.845703
4261.822266	17839.490234
4260.715820	17802.632813
4259.608398	18021.152344
4258.500977	17883.490234
4257.393555	17936.210938
4256.286133	17921.748047
4255.177734	18108.748047
4254.069336	18083.066406
4252.961914	18086.482422
4251.852539	18275.583984
4250.744141	18120.152344
4249.635742	18183.939453
4248.526367	18334.904297
4247.416992	18523.820313
4246.307617	18455.623047
4245.197266	18222.078125
4244.087891	18495.812500
4242.977539	18257.876953
4241.867188	18379.625000
4240.756836	18612.982422
4239.645508	18415.341797
4238.535156	18699.949219
4237.423828	18542.537109
4236.312500	18559.236328
4235.200195	18417.523438
4234.088867	18786.685547
4232.976563	18794.408203
4231.864258	18815.507813
4230.751953	18783.089844
4229.639648	18900.031250
4228.527344	18905.496094
4227.414063	18848.568359
4226.300781	18758.242188
4225.187500	19024.333984
4224.074219	18980.775391
4222.959961	19106.453125
4221.845703	18860.308594
4220.731445	19132.863281
4219.617188	19231.736328
4218.502930	18956.777344
4217.387695	19137.955078
4216.272461	19232.322266
4215.157227	19139.859375
4214.041992	19196.394531
4212.926758	19021.720703
4211.810547	19164.933594
4210.694336	19454.753906
4209.578125	19293.457031
4208.461914	19407.662109
4207.345703	19317.500000
4206.228516	19207.386719
4205.111328	19359.283203
4203.994141	19360.185547
4202.876953	19378.839844
4201.758789	19592.748047
4200.640625	19629.099609
4199.523438	19226.257813
4198.404297	19659.625000
4197.286133	19421.000000
4196.167969	19404.148438
4195.048828	19374.003906
4193.929688	19707.298828
4192.810547	19816.693359
4191.690430	19839.652344
4190.571289	19563.599609
4189.451172	19553.378906
4188.331055	19791.130859
4187.210938	19698.966797
4186.089844	19675.443359
4184.968750	19961.722656
4183.848633	20026.654297
4182.727539	19949.994141
4181.605469	19731.820313
4180.484375	20157.179688
4179.362305	19815.242188
4178.240234	19900.031250
4177.118164	19861.029297
4175.996094	19817.623047
4174.873047	19772.021484
4173.750000	19940.685547
4172.626953	19954.701172
4171.503906	19893.642578
4170.380859	20057.773438
4169.256836	20027.615234
4168.133789	20145.318359
4167.009766	20218.851563
4165.884766	20329.857422
4164.760742	20248.941406
4163.635742	20238.617188
4162.510742	20188.611328
4161.385742	20215.775391
4160.260742	20430.259766
4159.135742	20289.898438
4158.009766	20488.867188
4156.883789	20209.777344
4155.757813	20289.761719
4154.630859	20459.992188
4153.504883	20570.720703
4152.377930	20296.218750
4151.250977	20417.937500
4150.124023	20383.392578
4148.997070	20311.460938
4147.869141	20485.894531
4146.741211	20497.533203
4145.613281	20753.218750
4144.485352	20569.156250
4143.356445	20420.326172
4142.228516	20634.130859
4141.099609	20491.931641
4139.970703	20518.927734
4138.841797	20438.296875
4137.711914	20667.308594
4136.582031	20887.453125
4135.452148	20776.064453
4134.322266	20702.025391
4133.192383	20985.673828
4132.061523	20898.458984
4130.931641	20800.306641
4129.800781	20928.072266
4128.668945	20843.105469
4127.538086	21054.119141
4126.406250	20848.607422
4125.274414	20660.703125
4124.142578	20882.585938
4123.010742	21176.677734
4121.878906	21015.095703
4120.746094	21009.046875
4119.613281	20919.804688
4118.480469	20933.476563
4117.347656	21041.251953
4116.213867	20884.214844
4115.080078	21007.273438
4113.946289	21303.089844
4112.812500	21091.412109
4111.678711	21334.625000
4110.543945	21138.322266
4109.409180	21208.755859
4108.274414	21285.720703
4107.139648	21297.105469
4106.003906	21284.455078
4104.869141	21267.439453
4103.733398	21117.218750
4102.597656	21281.458984
4101.460938	21268.818359
4100.325195	21295.464844
4099.188477	21411.572266
4098.051758	21080.371094
4096.915039	21425.517578
4095.778320	21491.371094
4094.640625	21345.683594
4093.502930	21372.281250
4092.365234	21627.746094
4091.227539	21410.191406
4090.088867	21772.322266
4088.951172	21339.140625
4087.812500	21857.978516
4086.673828	21318.226563
4085.534180	21575.591797
4084.395508	21562.916016
4083.255859	21256.406250
4082.116211	21504.933594
4080.976563	21772.949219
4079.836914	21823.328125
4078.696289	21891.087891
4077.555664	21702.222656
4076.415039	21750.410156
4075.274414	21744.234375
4074.132813	21805.433594
4072.992188	21718.849609
4071.850586	21591.015625
4070.708984	21765.160156
4069.566406	21504.884766
4068.424805	21687.666016
4067.282227	21866.035156
4066.139648	22246.201172
4064.997070	21805.900391
4063.853516	21962.449219
4062.710938	21747.976563
4061.567383	21858.927734
4060.423828	22043.568359
4059.280273	21720.789063
4058.135742	21924.894531
4056.991211	21840.664063
4055.847656	21908.152344
4054.702148	22086.109375
4053.557617	22105.869141
4052.413086	21963.187500
4051.267578	21729.609375
4050.122070	21989.734375
4048.976563	21754.072266
4047.830078	21797.675781
4046.683594	22074.951172
4045.538086	22148.765625
4044.390625	21969.482422
4043.244141	21989.222656
4042.097656	22004.628906
4040.950195	21968.146484
4039.802734	22033.261719
4038.655273	22225.849609
4037.506836	21863.093750
4036.359375	22219.816406
4035.210938	21978.140625
4034.062500	22390.853516
4032.914063	22289.568359
4031.764648	22307.044922
4030.616211	22164.804688
4029.466797	22029.089844
4028.317383	22137.212891
4027.166992	22184.898438
4026.017578	22359.804688
4024.867188	22161.621094
4023.716797	22228.673828
4022.566406	22252.593750
4021.415039	22390.718750
4020.264648	21947.042969
4019.113281	21960.226563
4017.961914	22436.478516
4016.810547	22333.279297
4015.658203	22611.207031
4014.505859	22068.873047
4013.353516	22303.697266
4012.201172	22245.785156
4011.048828	22411.642578
4009.895508	22373.087891
4008.742188	22123.781250
4007.588867	22328.271484
4006.435547	22534.835938
4005.282227	22466.189453
4004.127930	22111.742188
4002.973633	22090.468750
4001.819336	22116.464844
4000.665039	22333.611328
3999.509766	22250.029297
3998.354492	22376.890625
3997.199219	22173.115234
3996.043945	22181.896484
3994.888672	22158.484375
3993.732422	22469.777344
3992.576172	22439.884766
3991.419922	22219.123047
3990.263672	22405.859375
3989.106445	22185.183594
3987.949219	22056.757813
3986.792969	22121.261719
3985.634766	22200.738281
3984.477539	22190.207031
3983.319336	22374.593750
3982.161133	22301.927734
3981.002930	22205.736328
3979.844727	22246.583984
3978.686523	22510.013672
3977.527344	22167.738281
3976.368164	22277.035156
3975.208984	22251.523438
3974.048828	22106.250000
3972.889648	22001.656250
3971.729492	22337.523438
3970.569336	22277.814453
3969.409180	22260.869141
3968.248047	22032.388672
3967.087891	22209.904297
3965.926758	22319.001953
3964.764648	22240.125000
3963.603516	22248.820313
3962.442383	22180.658203
3961.280273	22093.310547
3960.118164	22417.859375
3958.955078	22245.154297
3957.792969	22204.771484
3956.629883	22040.697266
3955.466797	21910.802734
3954.303711	22047.460938
3953.140625	22218.173828
3951.976563	22073.396484
3950.813477	22278.132813
3949.649414	22173.873047
3948.484375	21916.289063
3947.320313	22067.695313
3946.155273	21893.265625
3944.990234	22019.070313
3943.825195	22174.628906
3942.660156	22017.296875
3941.494141	22053.644531
3940.329102	22034.666016
3939.163086	21911.476563
3937.996094	22373.123047
3936.830078	22156.363281
3935.663086	22035.341797
3934.496094	21776.216797
3933.329102	21793.429688
3932.162109	22078.328125
3930.995117	22140.083984
3929.827148	21925.726563
3928.659180	21879.193359
3927.491211	21728.652344
3926.322266	22246.777344
3925.153320	22113.199219
3923.985352	21824.777344
3922.816406	21884.371094
3921.646484	21566.402344
3920.477539	21744.775391
3919.307617	22071.496094
3918.137695	21781.224609
3916.967773	22065.425781
3915.796875	22014.712891
3914.626953	21830.542969
3913.456055	21648.558594
3912.285156	21801.263672
3911.113281	21943.322266
3909.942383	21835.513672
3908.770508	21473.742188
3907.598633	21590.384766
3906.426758	21700.634766
3905.253906	21914.503906
3904.082031	21667.197266
3902.909180	21891.562500
3901.736328	21496.347656
3900.562500	21699.521484
3899.389648	21575.021484
3898.215820	21537.203125
3897.041992	21550.105469
3895.868164	21710.867188
3894.693359	21664.595703
3893.519531	21544.433594
3892.344727	21477.095703
3891.169922	21629.304688
3889.994141	21737.138672
3888.819336	21547.417969
3887.643555	21672.101563
3886.467773	21653.308594
3885.291992	21493.232422
3884.115234	21451.285156
3882.939453	21521.080078
3881.762695	21527.617188
3880.585938	21203.312500
3879.408203	21285.751953
3878.231445	21536.679688
3877.053711	21547.417969
3875.875977	21543.412109
3874.698242	21267.820313
3873.519531	21590.128906
3872.341797	21400.914063
3871.163086	21352.748047
3869.984375	21504.453125
3868.804688	21466.800781
3867.625977	21174.701172
3866.446289	21509.275391
3865.266602	21400.166016
3864.085938	21215.431641
3862.906250	21617.052734
3861.725586	21293.677734
3860.544922	21245.603516
3859.364258	21365.562500
3858.183594	21283.892578
3857.001953	21185.457031
3855.820313	21370.427734
3854.638672	21156.583984
3853.457031	21095.992188
3852.274414	21211.644531
3851.092773	21262.230469
3849.910156	20819.978516
3848.726563	21294.150391
3847.543945	21107.804688
3846.360352	21139.505859
3845.177734	21011.931641
3843.993164	20913.738281
3842.809570	20945.453125
3841.625977	21065.119141
3840.441406	20908.333984
3839.256836	21007.025391
3838.072266	20969.621094
3836.886719	20871.537109
3835.701172	20892.757813
3834.516602	21016.478516
3833.330078	20914.255859
3832.144531	20690.777344
3830.958008	20712.011719
3829.772461	20756.230469
3828.585938	20683.390625
3827.398438	20675.355469
3826.211914	20673.589844
3825.024414	20671.824219
3823.836914	20695.121094
3822.649414	20624.443359
3821.461914	20470.279297
3820.273438	20840.097656
3819.084961	20660.906250
3817.896484	20742.603516
3816.708008	20473.789063
3815.518555	20453.285156
3814.329102	20576.679688
3813.139648	20431.058594
3811.950195	20518.970703
3810.760742	20331.730469
3809.570313	20413.375000
3808.379883	20238.722656
3807.189453	20595.316406
3805.999023	20170.771484
3804.807617	20352.330078
3803.616211	20375.597656
3802.424805	20142.828125
3801.233398	20336.775391
3800.041992	20301.767578
3798.849609	20356.226563
3797.657227	20042.511719
3796.464844	19990.939453
3795.271484	20051.662109
3794.079102	19983.474609
3792.885742	20191.740234
3791.692383	20044.585938
3790.498047	19953.582031
3789.304688	19775.367188
3788.110352	19956.513672
3786.916016	20081.525391
3785.721680	20096.458984
3784.526367	19972.314453
3783.332031	20078.574219
3782.136719	19437.822266
3780.941406	19616.750000
3779.745117	19747.902344
3778.549805	19789.833984
3777.353516	19840.042969
3776.157227	19593.796875
3774.960938	19530.029297
3773.763672	19499.439453
3772.566406	19404.634766
3771.369141	19599.863281
3770.171875	19542.351563
3768.974609	19677.431641
3767.776367	19450.164063
3766.578125	19636.955078
3765.379883	19666.394531
3764.181641	19273.724609
3762.982422	19505.953125
3761.783203	19287.199219
3760.583984	19469.705078
3759.384766	19346.144531
3758.184570	19276.376953
3756.985352	19198.365234
3755.785156	19444.806641
3754.584961	19286.216797
3753.383789	19197.917969
3752.183594	19157.150391
3750.982422	19068.906250
3749.781250	19178.882813
3748.579102	18745.964844
3747.377930	19072.646484
3746.175781	18912.265625
3744.973633	18902.535156
3743.771484	18709.242188
3742.568359	18949.074219
3741.365234	18665.125000
3740.162109	18855.400391
3738.958984	18705.539063
3737.755859	18594.882813
3736.551758	18762.398438
3735.347656	18561.140625
3734.143555	18712.121094
3732.939453	18723.029297
3731.734375	18750.402344
3730.529297	18697.490234
3729.324219	18541.703125
3728.119141	18476.501953
3726.914063	18473.039063
3725.708008	18459.294922
3724.501953	18431.158203
3723.295898	18433.871094
3722.088867	18461.250000
3720.882813	18153.619141
3719.675781	18125.558594
3718.468750	18280.351563
3717.260742	18406.330078
3716.053711	18051.701172
3714.845703	18229.005859
3713.637695	18200.951172
3712.429688	17943.027344
3711.220703	18038.164063
3710.011719	17848.072266
3708.802734	17941.138672
3707.593750	17907.007813
3706.384766	17692.439453
3705.174805	17803.931641
3703.964844	17855.935547
3702.754883	17649.691406
3701.544922	17761.126953
3700.333984	17655.359375
3699.123047	17828.199219
3697.912109	17673.308594
3696.701172	17817.412109
3695.489258	17646.203125
3694.278320	17739.087891
3693.066406	17432.896484
3691.853516	17611.714844
3690.641602	17692.277344
3689.428711	17578.515625
3688.215820	17348.240234
3687.002930	17694.580078
3685.790039	17321.283203
3684.576172	17461.087891
3683.362305	17327.037109
3682.148438	17315.611328
3680.934570	17355.251953
3679.719727	17331.570313
3678.504883	17269.103516
3677.290039	17241.361328
3676.075195	17017.697266
3674.860352	17132.853516
3673.644531	17005.179688
3672.428711	17265.123047
3671.212891	17033.458984
3669.996094	17117.937500
3668.780273	16943.470703
3667.563477	17058.507813
3666.346680	16729.234375
3665.128906	16836.115234
3663.912109	16745.353516
3662.694336	16974.394531
3661.476563	16771.638672
3660.257813	16687.044922
3659.040039	16716.476563
3657.821289	16821.199219
3656.602539	16626.759766
3655.383789	16597.183594
3654.164063	16762.890625
3652.945313	16566.535156
3651.725586	16616.285156
3650.504883	16674.146484
3649.285156	16595.804688
3648.064453	16361.014648
3646.844727	16685.052734
3645.623047	16362.982422
3644.402344	16270.537109
3643.180664	16600.500000
3641.959961	16406.531250
3640.738281	16460.279297
3639.515625	16254.230469
3638.293945	16403.353516
3637.071289	16270.426758
3635.848633	16131.463867
3634.625977	16339.334961
3633.402344	16070.644531
3632.178711	16106.134766
3630.955078	16133.502930
3629.731445	16089.935547
3628.507813	16072.722656
3627.283203	16098.053711
3626.058594	16226.665039
3624.833984	15964.418945
3623.609375	15518.039063
3622.383789	15652.756836
3621.158203	15973.610352
3619.932617	15711.606445
3618.707031	15819.911133
3617.480469	15699.617188
3616.254883	15662.279297
3615.028320	15895.884766
3613.800781	15533.064453
3612.574219	15604.916992
3611.346680	15658.554688
3610.119141	15689.948242
3608.891602	15618.311523
3607.663086	15358.879883
3606.435547	15501.365234
3605.207031	15589.288086
3603.978516	15560.108398
3602.749023	15413.891602
3601.520508	15193.075195
3600.291016	15341.505859
3599.061523	15082.463867
3597.831055	15091.717773
3596.601563	15225.967773
3595.371094	15009.423828
3594.140625	15141.622070
3592.909180	15344.295898
3591.678711	15045.249023
3590.447266	15016.223633
3589.215820	15079.847656
3587.984375	14948.137695
3586.751953	14909.079102
3585.520508	15099.486328
3584.288086	14845.091797
3583.054688	14952.947266
3581.822266	15296.117188
3580.588867	14862.830078
3579.355469	14847.958008
3578.122070	14770.766602
3576.888672	14804.158203
3575.654297	14869.691406
3574.419922	14702.119141
3573.185547	14538.626953
3571.951172	14606.179688
3570.715820	14589.362305
3569.480469	14538.418945
3568.245117	14646.079102
3567.009766	14717.571289
3565.773438	14329.512695
3564.538086	14342.854492
3563.301758	14440.438477
3562.064453	14369.521484
3560.828125	14318.681641
3559.590820	14317.979492
3558.353516	14397.451172
3557.116211	14587.113281
3555.877930	14173.612305
3554.640625	14217.006836
3553.402344	14152.229492
3552.164063	14173.583008
3550.924805	14112.840820
3549.686523	14134.192383
3548.447266	14001.430664
3547.207031	14046.805664
3545.967773	13788.072266
3544.727539	14017.488281
3543.488281	13858.848633
3542.248047	14076.166992
3541.006836	13849.606445
3539.766602	13936.926758
3538.525391	13676.505859
3537.284180	13787.799805
3536.041992	13793.179688
3534.800781	13604.830078
3533.558594	13664.156250
3532.316406	13687.522461
3531.074219	13784.733398
3529.831055	13584.551758
3528.587891	13727.635742
3527.344727	13515.570313
3526.101563	13544.922852
3524.858398	13524.410156
3523.614258	13364.338867
3522.370117	13467.458008
3521.125977	13339.346680
3519.880859	13348.775391
3518.636719	13483.712891
3517.391602	13367.620117
3516.146484	13510.467773
3514.900391	13408.350586
3513.655273	13282.381836
3512.409180	13050.970703
3511.163086	13273.368164
3509.916016	13354.416016
3508.669922	13365.809570
3507.422852	13116.655273
3506.175781	13130.076172
3504.927734	13240.910156
3503.680664	12948.188477
3502.432617	13096.773438
3501.184570	13036.666992
3499.935547	12833.545898
3498.687500	13033.708008
3497.438477	13134.500977
3496.189453	13022.807617
3494.940430	12913.141602
3493.690430	12785.653320
3492.441406	12844.743164
3491.190430	12881.985352
3489.940430	12814.082031
3488.690430	12827.516602
3487.439453	12563.345703
3486.188477	12580.786133
3484.937500	12717.145508
3483.685547	12577.992188
3482.434570	12749.962891
3481.182617	12606.894531
3479.929688	12568.849609
3478.677734	12736.762695
3477.424805	12663.069336
3476.171875	12696.295898
3474.918945	12567.222656
3473.666016	12642.005859
3472.412109	12372.529297
3471.158203	12393.915039
3469.904297	12458.798828
3468.650391	12703.583008
3467.395508	12564.768555
3466.140625	12362.758789
3464.885742	12336.696289
3463.630859	12535.875000
3462.375000	12320.157227
3461.119141	12361.264648
3459.863281	12461.593750
3458.607422	12218.372070
3457.350586	12350.270508
3456.093750	12217.673828
3454.836914	12278.490234
3453.580078	12224.865234
3452.322266	12163.371094
3451.064453	12303.040039
3449.806641	12070.025391
3448.548828	12306.246094
3447.291016	12071.347656
3446.032227	12033.583008
3444.773438	12153.439453
3443.513672	12072.339844
3442.254883	12137.000977
3440.995117	11924.012695
3439.735352	11854.812500
3438.475586	12116.296875
3437.214844	12155.316406
3435.955078	11871.656250
3434.694336	11887.100586
3433.432617	11812.070313
3432.171875	11823.586914
3430.910156	11607.045898
3429.648438	11667.735352
3428.386719	11734.296875
3427.124023	11832.269531
3425.862305	11749.473633
3424.599609	11652.959961
3423.335938	11766.600586
3422.073242	11656.375977
3420.809570	11618.823242
3419.545898	11740.253906
3418.282227	11477.041992
3417.018555	11482.703125
3415.753906	11441.286133
3414.489258	11605.800781
3413.224609	11311.440430
3411.958984	11577.854492
3410.694336	11383.570313
3409.428711	11546.007813
3408.163086	11441.927734
3406.896484	11355.515625
3405.629883	11349.434570
3404.364258	11425.595703
3403.096680	11231.559570
3401.830078	11252.906250
3400.562500	11109.857422
3399.294922	11326.880859
3398.027344	11399.058594
3396.759766	10945.078125
3395.491211	11165.917969
3394.222656	11044.526367
3392.954102	11132.338867
3391.685547	10989.500000
3390.416016	10973.725586
3389.146484	11063.453125
3387.876953	10971.492188
3386.607422	11184.216797
3385.336914	10828.676758
3384.066406	10951.548828
3382.795898	10931.892578
3381.525391	10894.681641
3380.253906	11142.333984
3378.982422	10872.966797
3377.710938	10851.388672
3376.439453	10744.022461
3375.166992	10794.608398
3373.894531	10698.988281
3372.622070	10741.767578
3371.349609	10653.985352
3370.076172	10556.497070
3368.802734	10667.446289
3367.529297	10579.727539
3366.255859	10490.094727
3364.981445	10560.114258
3363.707031	10805.263672
3362.432617	10540.513672
3361.158203	10435.391602
3359.882813	10592.893555
3358.607422	10563.644531
3357.332031	10415.800781
3356.056641	10631.534180
3354.780273	10458.465820
3353.503906	10431.206055
3352.227539	10621.553711
3350.951172	10396.138672
3349.673828	10440.761719
3348.396484	10491.193359
3347.119141	10335.819336
3345.841797	10273.672852
3344.563477	10258.124023
3343.285156	10485.112305
3342.006836	10409.391602
3340.728516	10457.828125
3339.449219	10227.009766
3338.169922	10190.155273
3336.890625	10261.865234
3335.611328	10257.964844
3334.331055	10186.246094
3333.050781	10209.482422
3331.770508	10075.818359
3330.490234	9961.571289
3329.208984	10079.708008
3327.927734	9897.749023
3326.646484	10002.303711
3325.365234	9874.610352
3324.083008	9870.785156
3322.800781	9820.538086
3321.518555	9942.430664
3320.236328	10087.479492
3318.953125	10091.347656
3317.669922	9930.922852
3316.386719	9905.831055
3315.103516	9797.668945
3313.819336	9846.017578
3312.535156	10046.923828
3311.250977	9792.040039
3309.966797	9909.863281
3308.681641	9676.334961
3307.396484	9709.218750
3306.111328	9657.191406
3304.826172	9734.435547
3303.540039	9802.005859
3302.253906	9802.055664
3300.967773	9642.079102
3299.681641	9757.818359
3298.394531	9769.439453
3297.107422	9727.101563
3295.820313	9756.061523
3294.532227	9584.686523
3293.245117	9609.810547
3291.957031	9609.893555
3290.668945	9581.099609
3289.379883	9463.780273
3288.091797	9496.603516
3286.802734	9477.466797
3285.512695	9487.190430
3284.223633	9552.683594
3282.933594	9583.540039
3281.643555	9443.282227
3280.353516	9322.298828
3279.063477	9455.032227
3277.772461	9341.778320
3276.481445	9532.086914
3275.190430	9511.051758
3273.898438	9438.175781
3272.607422	9409.485352
3271.315430	9373.127930
3270.022461	9344.459961
3268.730469	9348.422852
3267.437500	9340.872070
3266.144531	9273.864258
3264.851563	9354.544922
3263.557617	9337.410156
3262.264648	9327.949219
3260.970703	9247.577148
3259.675781	9368.439453
3258.381836	9142.484375
3257.086914	9226.925781
3255.791992	9232.813477
3254.497070	9129.557617
3253.201172	9233.095703
3251.905273	9187.298828
3250.609375	9034.354492
3249.313477	9137.849609
3248.016602	9118.876953
3246.720703	9061.660156
3245.423828	8937.539063
3244.125977	8924.350586
3242.829102	9060.258789
3241.531250	9079.539063
3240.233398	9154.221680
3238.934570	9020.648438
3237.636719	8953.974609
3236.337891	8912.150391
3235.039063	9040.265625
3233.739258	8973.625000
3232.440430	9073.049805
3231.140625	8842.328125
3229.840820	8926.476563
3228.540039	8907.592773
3227.240234	8862.017578
3225.939453	8978.526367
3224.638672	8877.669922
3223.336914	8864.526367
3222.035156	8773.258789
3220.734375	8824.916016
3219.431641	8714.641602
3218.129883	8732.008789
3216.827148	8730.328125
3215.524414	8698.187500
3214.221680	8671.769531
3212.918945	8647.263672
3211.615234	8706.483398
3210.311523	8598.279297
3209.007813	8649.876953
3207.703125	8568.345703
3206.398438	8583.806641
3205.093750	8492.815430
3203.789063	8751.540039
3202.483398	8552.246094
3201.178711	8472.709961
3199.873047	8566.044922
3198.566406	8486.536133
3197.260742	8625.398438
3195.954102	8492.756836
3194.647461	8434.184570
3193.340820	8468.611328
3192.033203	8355.046875
3190.725586	8436.895508
3189.417969	8431.475586
3188.110352	8376.760742
3186.801758	8369.458984
3185.493164	8419.018555
3184.184570	8478.034180
3182.875000	8307.780273
3181.566406	8236.091797
3180.256836	8512.901367
3178.947266	8422.264648
3177.636719	8335.449219
3176.327148	8261.916992
3175.016602	8220.582031
3173.705078	8277.649414
3172.394531	8204.168945
3171.083008	8155.303223
3169.771484	8250.166992
3168.459961	8084.095215
3167.147461	8243.203125
3165.835938	8073.415527
3164.523438	8234.352539
3163.209961	8072.188477
3161.897461	8117.848633
3160.583984	8191.816895
3159.270508	8316.732422
3157.957031	8132.023926
3156.642578	8087.045898
3155.328125	8030.763672
3154.013672	7976.388672
3152.699219	8180.443848
3151.383789	7986.508789
3150.068359	8064.155762
3148.752930	7975.882813
3147.437500	7906.491211
3146.121094	8036.870117
3144.804688	7990.101074
3143.488281	8009.276855
3142.170898	7892.848633
3140.854492	7932.747559
3139.537109	7827.673828
3138.218750	7867.568848
3136.901367	7854.757324
3135.583008	7890.868164
3134.264648	7847.958496
3132.946289	7818.229980
3131.626953	7835.521973
3130.308594	7954.327637
3128.988281	7911.437012
3127.668945	7804.666992
3126.349609	7673.512207
3125.029297	7831.705078
3123.708984	8027.400391
3122.387695	7993.924805
3121.067383	7789.611816
3119.746094	7654.830078
3118.424805	7595.169922
3117.102539	7558.049316
3115.780273	7753.567871
3114.458984	7710.803223
3113.135742	7729.938965
3111.813477	7570.949219
3110.490234	7655.713379
3109.166992	7746.066895
3107.843750	7737.072266
3106.519531	7709.345703
3105.196289	7606.704590
3103.872070	7687.632813
3102.546875	7650.568848
3101.222656	7650.958984
3099.897461	7679.423828
3098.572266	7586.242676
3097.246094	7659.610840
3095.920898	7684.314941
3094.594727	7651.032715
3093.268555	7679.467773
3091.941406	7530.290527
3090.615234	7685.837891
3089.288086	7585.303711
3087.960938	7553.939453
3086.632813	7530.059082
3085.304688	7558.482422
3083.976563	7568.221191
3082.648438	7391.260254
3081.320313	7667.949219
3079.991211	7492.903320
3078.662109	7418.682129
3077.333008	7504.921875
3076.002930	7264.728516
3074.672852	7414.366699
3073.342773	7591.913086
3072.012695	7396.578613
3070.681641	7398.871094
3069.350586	7449.609375
3068.019531	7377.371094
3066.688477	7495.146973
3065.356445	7365.197266
3064.024414	7360.044434
3062.692383	7444.246582
3061.359375	7493.053223
3060.027344	7459.965332
3058.694336	7322.705078
3057.360352	7391.966797
3056.027344	7425.866211
3054.693359	7407.690430
3053.359375	7346.764160
3052.025391	7347.196289
3050.690430	7405.234375
3049.355469	7388.933105
3048.020508	7246.324219
3046.685547	7402.778320
3045.349609	7386.485840
3044.013672	7344.208496
3042.677734	7327.932617
3041.340820	7304.240234
3040.004883	7224.894531
3038.667969	7249.461426
3037.330078	7364.896973
3035.993164	7165.054199
3034.655273	7395.405762
3033.317383	7227.145508
3031.979492	7268.364746
3030.640625	7235.453125
3029.301758	7276.654297
3027.962891	7145.589355
3026.624023	7105.312500
3025.284180	7174.285156
3023.944336	7222.869141
3022.604492	7154.838867
3021.263672	6985.065918
3019.923828	7189.056152
3018.583008	7252.394531
3017.241211	7230.642090
3015.900391	7022.157715
3014.558594	7237.071777
3013.216797	7180.217773
3011.875000	7114.146973
3010.532227	7097.982422
3009.189453	7137.237793
3007.846680	7047.204590
3006.503906	7176.926758
3005.160156	7107.227051
3003.816406	7000.640137
3002.472656	6999.277344
3001.128906	7080.937500
2999.784180	7009.464355
2998.439453	7161.170898
2997.094727	7108.147949
2995.749023	6986.935059
2994.403320	7015.064941
2993.057617	7054.240234
2991.711914	7080.502930
2990.365234	7093.860352
2989.018555	6937.773438
2987.671875	7052.427734
2986.325195	7063.940918
2984.977539	6845.368164
2983.629883	7044.625488
2982.282227	6943.896484
2980.933594	6929.666504
2979.585938	7022.115723
2978.237305	6899.382324
2976.887695	6931.130371
2975.539063	7054.772461
2974.189453	6864.105957
2972.839844	6873.791992
2971.489258	6923.889648
2970.139648	6832.541016
2968.789063	6855.081055
2967.438477	6850.072266
2966.086914	6854.243164
2964.735352	6854.741211
2963.383789	6952.489258
2962.032227	6881.419922
2960.680664	6848.895996
2959.328125	6950.254883
2957.975586	6903.061523
2956.622070	6700.070801
2955.269531	6836.220703
2953.916016	6779.914551
2952.562500	6987.444824
2951.208008	6885.337891
2949.854492	6838.210449
2948.500000	6763.636230
2947.144531	6830.048828
2945.790039	6793.940430
2944.434570	6693.798828
2943.079102	6822.389648
2941.723633	6965.563477
2940.367188	6708.166016
2939.010742	6798.279785
2937.654297	6685.436523
2936.297852	6839.490234
2934.940430	6741.301758
2933.583008	6712.579102
2932.225586	6744.147949
2930.867188	6806.751953
2929.508789	6816.377441
2928.150391	6742.020508
2926.791992	6622.060547
2925.432617	6808.731934
2924.074219	6654.138672
2922.713867	6703.915039
2921.354492	6695.309082
2919.994141	6670.294922
2918.633789	6639.820801
2917.273438	6740.597656
2915.913086	6562.505371
2914.551758	6690.587891
2913.190430	6680.170898
2911.829102	6855.534668
2910.466797	6668.453125
2909.104492	6567.013672
2907.742188	6711.351074
2906.379883	6528.045898
2905.016602	6666.875000
2903.653320	6654.655273
2902.290039	6635.164551
2900.925781	6612.043945
2899.562500	6654.385254
2898.197266	6660.353516
2896.833008	6551.821777
2895.468750	6545.087891
2894.103516	6616.475098
2892.738281	6558.872559
2891.372070	6661.100586
2890.005859	6608.958008
2888.640625	6594.956543
2887.273438	6648.113281
2885.907227	6597.817383
2884.540039	6799.718262
2883.172852	6611.557617
2881.805664	6561.297852
2880.437500	6558.199219
2879.069336	6598.608398
2877.701172	6629.939941
2876.333008	6509.042480
2874.963867	6547.625000
2873.594727	6582.569336
2872.225586	6679.074707
2870.855469	6525.668945
2869.485352	6569.647461
2868.115234	6564.739746
2866.745117	6762.509766
2865.374023	6558.547363
2864.002930	6609.719238
2862.631836	6516.187500
2861.260742	6437.157227
2859.888672	6443.125977
2858.516602	6503.316895
2857.144531	6648.418457
2855.771484	6609.171875
2854.398438	6609.681641
2853.025391	6595.742676
2851.652344	6498.745605
2850.278320	6658.146973
2848.904297	6590.055664
2847.530273	6471.460449
2846.156250	6432.299805
2844.781250	6661.941406
2843.406250	6446.007324
2842.030273	6466.380371
2840.655273	6456.096680
2839.279297	6496.287109
2837.903320	6486.000488
2836.526367	6509.952637
2835.150391	6593.342773
2833.773438	6483.981445
2832.395508	6551.136230
2831.018555	6373.410645
2829.640625	6427.959961
2828.262695	6468.090332
2826.884766	6376.852539
2825.505859	6436.765137
2824.126953	6368.951172
2822.748047	6452.218262
2821.368164	6391.619141
2819.989258	6415.528809
2818.609375	6360.351074
2817.228516	6382.460449
2815.848633	6383.001953
2814.467773	6354.804688
2813.086914	6319.435059
2811.705078	6325.374512
2810.324219	6327.720703
2808.942383	6373.140137
2807.559570	6287.550293
2806.177734	6445.982910
2804.794922	6342.475098
2803.412109	6343.020508
2802.029297	6295.155273
2800.645508	6417.608398
2799.261719	6382.292480
2797.877930	6398.955566
2796.493164	6585.811523
2795.109375	6398.229004
2793.724609	6339.662109
2792.338867	6288.279785
2790.954102	6380.130371
2789.568359	6378.874512
2788.182617	6459.933594
2786.795898	6297.642578
2785.409180	6273.148926
2784.022461	6178.916992
2782.635742	6265.314453
2781.249023	6321.286621
2779.861328	6439.793945
2778.473633	6234.808594
2777.084961	6308.619141
2775.697266	6148.396973
2774.308594	6279.344727
2772.918945	6179.900879
2771.530273	6192.964844
2770.140625	6280.988281
2768.750977	6295.811523
2767.361328	6314.196777
2765.970703	6189.868164
2764.580078	6283.172363
2763.189453	6305.114258
2761.797852	6221.863770
2760.407227	6186.771484
2759.015625	6171.294922
2757.623047	6223.529785
2756.231445	6256.148438
2754.838867	6133.805664
2753.446289	6307.101074
2752.052734	6286.273438
2750.659180	6096.357910
2749.265625	6194.813477
2747.872070	6206.045898
2746.478516	6179.916992
2745.083984	6157.354980
2743.689453	6243.271973
2742.293945	6080.255371
2740.898438	6221.255371
2739.502930	6191.593262
2738.107422	6144.174316
2736.711914	6201.584473
2735.315430	6143.524902
2733.918945	6160.069824
2732.521484	6205.013672
2731.125000	6182.488281
2729.727539	6126.251465
2728.329102	6174.723633
2726.931641	6139.798340
2725.533203	6145.680176
2724.134766	6064.667969
2722.736328	6208.851563
2721.336914	6049.863770
2719.937500	6174.498047
2718.538086	6024.438965
2717.137695	6164.972168
2715.737305	6075.194336
2714.336914	6070.452148
2712.936523	6186.104980
2711.535156	6130.007813
2710.133789	6052.694824
2708.732422	6101.042969
2707.331055	6129.911133
2705.928711	5988.968262
2704.526367	6074.435547
2703.124023	6159.868652
2701.720703	5944.759277
2700.317383	5993.069336
2698.914063	6087.301758
2697.509766	6027.798340
2696.106445	6099.024414
2694.702148	6136.668457
2693.296875	5974.785156
2691.892578	6105.996582
2690.487305	5919.474121
2689.082031	5941.241699
2687.675781	5954.179688
2686.269531	5977.695313
2684.863281	6068.214355
2683.457031	5933.013184
2682.049805	5981.197266
2680.642578	5884.840820
2679.235352	6095.128418
2677.828125	6014.642578
2676.419922	5942.995117
2675.011719	6073.897949
2673.603516	5951.206055
2672.194336	6036.285156
2670.785156	6082.609863
2669.375977	6037.413086
2667.965820	5981.678223
2666.556641	5853.847656
2665.146484	6040.860352
2663.735352	5972.849121
2662.325195	5883.769043
2660.914063	5873.815430
2659.502930	5932.396973
2658.090820	6020.821777
2656.678711	5931.801758
2655.266602	6020.191406
2653.854492	6010.218750
2652.441406	5919.497559
2651.029297	5977.998535
2649.615234	5957.510254
2648.202148	5947.556641
2646.788086	6009.524414
2645.374023	5941.690430
2643.959961	5875.636230
2642.544922	5932.321289
2641.129883	5915.370117
2639.714844	5849.359375
2638.298828	5778.118652
2636.883789	5841.783691
2635.467773	5789.836426
2634.050781	5834.212402
2632.634766	5994.111328
2631.217773	5831.896484
2629.799805	5949.733887
2628.382813	5994.041504
2626.964844	5786.442871
2625.546875	5897.222168
2624.128906	5950.255859
2622.709961	5870.406250
2621.291016	5905.944824
2619.872070	5787.689941
2618.452148	5912.334961
2617.032227	5827.314453
2615.612305	5833.142578
2614.192383	5814.522949
2612.771484	5788.927246
2611.350586	5808.721680
2609.929688	5884.350586
2608.508789	5658.112793
2607.086914	5711.063965
2605.665039	5804.105957
2604.242188	5891.879883
2602.819336	5719.862305
2601.396484	5901.738770
2599.973633	5696.676758
2598.550781	5711.225098
2597.126953	5668.282715
2595.703125	5686.312988
2594.278320	5713.042480
2592.853516	5807.655762
2591.428711	5707.289063
2590.003906	5608.702148
2588.578125	5727.637207
2587.153320	5759.548340
2585.726563	5615.790527
2584.300781	5637.277832
2582.874023	5757.849609
2581.447266	5751.489746
2580.020508	5649.553223
2578.592773	5674.490723
2577.165039	5661.201660
2575.737305	5557.605957
2574.308594	5631.165527
2572.880859	5553.657715
2571.451172	5675.787598
2570.022461	5723.248047
2568.592773	5600.656738
2567.163086	5648.112305
2565.733398	5693.814453
2564.303711	5635.458984
2562.873047	5667.275391
2561.442383	5624.547363
2560.010742	5619.960938
2558.579102	5613.643555
2557.147461	5595.202637
2555.715820	5642.581055
2554.284180	5648.383301
2552.851563	5520.877930
2551.417969	5595.936523
2549.985352	5608.665039
2548.551758	5609.277344
2547.118164	5580.481934
2545.684570	5575.910156
2544.250000	5633.589844
2542.815430	5596.161621
2541.380859	5529.363770
2539.945313	5543.814453
2538.510742	5501.242188
2537.075195	5510.509277
2535.638672	5495.593262
2534.202148	5377.078613
2532.765625	5593.532227
2531.329102	5566.525391
2529.892578	5601.654785
2528.455078	5550.501465
2527.017578	5530.418457
2525.579102	5487.922363
2524.140625	5535.108398
2522.702148	5346.088867
2521.263672	5524.280762
2519.824219	5364.634277
2518.384766	5487.616211
2516.945313	5467.571777
2515.505859	5440.645996
2514.065430	5449.891113
2512.625000	5472.904785
2511.183594	5520.006348
2509.743164	5477.602539
2508.301758	5578.020508
2506.859375	5466.813477
2505.417969	5336.731445
2503.975586	5402.726563
2502.533203	5384.455078
2501.089844	5390.254395
2499.646484	5346.215332
2498.203125	5429.335938
2496.759766	5481.502441
2495.315430	5449.492676
2493.871094	5450.120117
2492.426758	5359.758789
2490.982422	5338.089844
2489.537109	5299.268555
2488.091797	5430.321289
2486.645508	5437.812500
2485.200195	5356.117188
2483.752930	5276.169434
2482.306641	5317.973145
2480.860352	5304.911133
2479.413086	5336.409668
2477.964844	5385.029297
2476.517578	5284.597656
2475.069336	5264.701172
2473.621094	5172.895020
2472.172852	5200.963379
2470.723633	5331.717773
2469.274414	5277.600586
2467.825195	5321.028809
2466.375000	5372.992188
2464.924805	5271.011230
2463.474609	5244.307617
2462.024414	5215.904297
2460.573242	5163.583008
2459.122070	5135.206543
2457.669922	5248.650391
2456.218750	5262.973145
2454.766602	5200.436035
2453.314453	5257.449707
2451.861328	5246.153809
2450.408203	5178.536133
2448.955078	5266.235840
2447.501953	5103.096680
2446.047852	5153.248047
2444.593750	5295.474609
2443.138672	5175.054199
2441.684570	5233.684570
2440.229492	5154.230957
2438.774414	5170.238770
2437.318359	5075.495605
2435.862305	5077.884766
2434.406250	5160.317383
2432.950195	5103.092285
2431.493164	5112.283203
2430.036133	5000.624512
2428.579102	4975.797852
2427.121094	5005.424316
2425.663086	5172.821777
2424.205078	5052.735840
2422.746094	5089.129883
2421.287109	5033.708496
2419.828125	4985.107910
2418.369141	4970.512695
2416.909180	5100.336914
2415.449219	5026.271484
2413.989258	5074.513184
2412.528320	4886.719238
2411.067383	5065.685547
2409.606445	5107.100586
2408.144531	4931.291016
2406.683594	4964.232422
2405.220703	4931.006836
2403.757813	5016.507813
2402.296875	4947.677246
2400.833984	4995.845215
2399.369141	4959.249023
2397.906250	4905.721680
2396.443359	4774.282227
2394.978516	4996.913574
2393.513672	4885.830078
2392.048828	4920.405273
2390.583984	4875.402344
2389.119141	5065.675781
2387.654297	4880.211426
2386.187500	4916.450684
2384.720703	4896.855957
2383.255859	4851.901367
2381.789063	4876.288086
2380.320313	4897.283691
2378.853516	4842.214844
2377.386719	4837.861328
2375.917969	4732.142578
2374.449219	4962.598633
2372.982422	4831.564941
2371.513672	4766.433105
2370.042969	4885.328125
2368.574219	4862.404785
2367.105469	4851.301758
2365.634766	4708.611816
2364.164063	4705.977539
2362.693359	4696.598145
2361.222656	4788.385742
2359.751953	4812.707520
2358.279297	4767.918945
2356.808594	4669.227051
2355.335938	4855.288086
2353.863281	4739.774414
2352.390625	4646.199219
2350.917969	4779.957520
2349.445313	4743.645020
2347.970703	4675.369629
2346.498047	4723.224609
2345.023438	4670.121582
2343.548828	4699.456055
2342.074219	4782.591309
2340.599609	4618.541504
2339.123047	4708.382813
2337.648438	4699.030762
2336.171875	4766.975586
2334.695313	4698.816895
2333.218750	4607.170898
2331.742188	4656.620117
2330.265625	4674.149902
2328.787109	4711.814941
2327.310547	4621.917480
2325.832031	4728.372070
2324.353516	4641.862305
2322.875000	4605.704102
2321.396484	4556.145020
2319.917969	4556.902344
2318.437500	4547.602051
2316.957031	4633.830566
2315.478516	4634.571289
2313.998047	4528.098145
2312.517578	4481.962891
2311.035156	4512.874512
2309.554688	4652.596191
2308.072266	4542.856445
2306.591797	4490.060059
2305.109375	4566.120117
2303.626953	4362.784180
2302.142578	4581.001953
2300.660156	4611.848145
2299.177734	4525.653320
2297.693359	4586.584961
2296.208984	4523.825684
2294.724609	4464.433594
2293.240234	4460.190918
2291.755859	4454.279297
2290.269531	4419.983398
2288.785156	4399.056641
2287.298828	4433.219727
2285.812500	4393.941406
2284.326172	4458.123535
2282.839844	4413.851563
2281.353516	4361.258301
2279.865234	4425.407227
2278.376953	4464.522949
2276.890625	4470.287598
2275.402344	4396.060547
2273.914063	4500.136230
2272.423828	4394.283203
2270.935547	4514.970703
2269.445313	4372.524902
2267.957031	4353.328613
2266.466797	4337.468262
2264.976563	4408.146484
2263.484375	4312.421387
2261.994141	4379.748535
2260.503906	4328.970215
2259.011719	4363.011719
2257.519531	4343.842285
2256.027344	4334.652832
2254.535156	4425.170410
2253.042969	4243.183594
2251.548828	4247.308105
2250.056641	4344.430176
2248.562500	4204.079102
2247.068359	4203.227539
2245.574219	4187.439453
2244.080078	4219.778809
2242.583984	4218.924316
2241.089844	4257.878418
2239.593750	4202.290039
2238.097656	4184.858887
2236.601563	4197.272461
2235.105469	4184.820801
2233.609375	4293.335938
2232.113281	4189.751953
2230.615234	4107.741699
2229.117188	4295.694824
2227.619141	4283.234375
2226.121094	4116.832031
2224.623047	4226.882813
2223.125000	4068.832520
2221.625000	4168.921875
2220.125000	4063.875000
2218.626953	4154.002441
2217.126953	4024.200439
2215.625000	4089.504150
2214.125000	4159.738770
2212.625000	4013.490967
2211.123047	4131.620117
2209.621094	4106.006836
2208.119141	4022.608154
2206.617188	4104.341309
2205.115234	3984.661865
2203.611328	4112.577637
2202.109375	4052.343750
2200.605469	3980.586670
2199.101563	4093.581055
2197.597656	4129.027344
2196.093750	4060.595215
2194.589844	4039.991211
2193.083984	4029.283203
2191.580078	4099.313477
2190.074219	4006.232178
2188.568359	3975.773193
2187.062500	4017.778076
2185.554688	3985.682373
2184.048828	4058.941162
2182.541016	4010.393311
2181.035156	3928.959229
2179.527344	4000.539307
2178.019531	3953.677002
2176.509766	3936.430664
2175.001953	3958.645996
2173.494141	4013.724609
2171.984375	3998.119385
2170.474609	3890.514648
2168.964844	3842.087891
2167.455078	3966.120361
2165.943359	3827.390137
2164.433594	3982.565674
2162.921875	3853.735596
2161.412109	3841.465332
2159.900391	3906.308594
2158.386719	3839.902832
2156.875000	3989.997070
2155.363281	3869.493652
2153.849609	3749.038818
2152.335938	3854.807617
2150.824219	3906.458984
2149.310547	3809.005371
2147.794922	3855.730713
2146.281250	3799.267090
2144.765625	3827.965088
2143.251953	3755.160156
2141.736328	3703.660645
2140.220703	3711.087891
2138.705078	3747.959229
2137.187500	3791.357666
2135.671875	3798.762207
2134.154297	3819.242920
2132.636719	3807.022705
2131.121094	3742.510254
2129.601563	3802.204102
2128.083984	3592.326416
2126.566406	3687.958496
2125.046875	3826.008057
2123.527344	3738.699707
2122.007813	3796.700195
2120.488281	3748.599854
2118.968750	3783.731445
2117.449219	3716.077393
2115.927734	3596.260010
2114.408203	3667.274414
2112.886719	3733.368896
2111.365234	3727.717773
2109.843750	3673.179932
2108.320313	3675.689453
2106.798828	3718.921875
2105.275391	3654.646973
2103.751953	3720.661621
2102.228516	3661.295898
2100.705078	3641.017578
2099.181641	3718.385254
2097.656250	3589.095947
2096.132813	3560.710693
2094.607422	3618.531250
2093.082031	3604.784912
2091.556641	3633.310791
2090.031250	3640.695801
2088.503906	3524.579102
2086.978516	3569.349854
2085.451172	3562.123779
2083.923828	3483.445313
2082.396484	3498.970459
2080.869141	3532.345703
2079.341797	3476.442871
2077.812500	3530.903076
2076.283203	3484.756836
2074.755859	3531.082764
2073.226563	3470.359863
2071.697266	3503.698975
2070.166016	3436.521973
2068.636719	3497.405273
2067.105469	3501.551758
2065.574219	3356.655518
2064.042969	3480.684570
2062.511719	3501.024414
2060.980469	3488.975830
2059.447266	3371.717285
2057.916016	3463.274170
2056.382813	3454.475830
2054.849609	3434.357178
2053.316406	3368.960449
2051.783203	3415.165527
2050.248047	3317.465088
2048.714844	3420.234131
2047.179688	3377.517334
2045.644531	3415.603516
2044.109375	3356.751221
2042.574219	3257.546631
2041.039063	3315.009766
2039.501953	3364.377197
2037.964844	3276.529785
2036.429688	3385.592529
2034.892578	3313.910156
2033.353516	3332.588623
2031.816406	3262.558838
2030.279297	3298.976074
2028.740234	3316.033447
2027.201172	3250.884766
2025.662109	3269.555908
2024.123047	3217.331787
2022.583984	3255.330811
2021.042969	3067.854980
2019.503906	3286.199219
2017.962891	3168.013428
2016.421875	3175.411377
2014.880859	3169.933594
2013.337891	3164.457764
2011.796875	3274.791748
2010.253906	3135.822754
2008.712891	3167.335938
2007.169922	3198.835693
2005.626953	3185.322998
2004.082031	3065.767090
2002.539063	3185.623535
2000.994141	3001.870605
1999.451172	3161.835938
1997.906250	3251.094238
1996.361328	3085.097168
1994.816406	3052.367920
1993.269531	3072.600342
1991.724609	3140.948975
1990.177734	3064.924316
1988.630859	3123.625244
1987.083984	3057.254150
1985.537109	3098.300781
1983.990234	3076.832275
1982.441406	3097.029297
1980.892578	3073.967529
1979.343750	2970.838623
1977.794922	3040.681641
1976.246094	3121.701904
1974.697266	2961.006592
1973.146484	3046.810303
1971.597656	3103.780518
1970.046875	2962.381836
1968.496094	3011.349609
1966.945313	3039.511230
1965.394531	3013.309814
1963.841797	3012.690674
1962.289063	2991.298828
1960.738281	2939.561523
1959.185547	2945.346680
1957.632813	3040.557129
1956.078125	3028.756104
1954.525391	2927.568359
1952.970703	3014.743652
1951.416016	2953.490479
1949.863281	2857.165771
1948.306641	2925.161865
1946.751953	2961.237061
1945.197266	2892.072754
1943.640625	2909.011963
1942.083984	2894.070801
1940.527344	2950.835205
1938.970703	2915.182373
1937.414063	2863.617188
1935.857422	2890.097900
1934.298828	2895.871338
1932.740234	2853.891602
1931.181641	2934.463623
1929.623047	2960.907227
1928.064453	2923.711914
1926.505859	2899.254395
1924.945313	2854.136230
1923.384766	2794.729004
1921.826172	2814.815918
1920.263672	2825.359863
1918.703125	2864.496582
1917.142578	2844.845703
1915.580078	2860.140625
1914.019531	2905.596680
1912.457031	2797.052979
1910.894531	2758.386230
1909.330078	2814.941895
1907.767578	2841.331787
1906.203125	2756.681641
1904.640625	2740.255859
1903.076172	2750.789307
1901.511719	2873.863525
1899.947266	2781.352051
1898.380859	2815.637451
1896.816406	2702.581543
1895.250000	2736.868896
1893.683594	2623.875244
1892.117188	2694.577637
1890.550781	2744.673340
1888.984375	2682.388672
1887.416016	2700.822021
1885.847656	2720.829346
1884.281250	2739.246826
1882.712891	2763.981201
1881.142578	2670.137939
1879.574219	2750.196289
1878.003906	2637.431396
1876.435547	2649.526611
1874.865234	2675.833008
1873.294922	2683.177002
1871.724609	2674.728516
1870.152344	2647.339844
1868.582031	2719.394775
1867.009766	2575.238525
1865.437500	2596.793945
1863.865234	2656.195557
1862.292969	2635.146240
1860.720703	2592.032227
1859.146484	2567.851807
1857.574219	2559.441406
1856.000000	2639.272705
1854.425781	2605.644775
1852.851563	2641.332275
1851.275391	2609.292480
1849.701172	2633.943359
1848.125000	2557.844238
1846.548828	2517.972412
1844.972656	2577.241455
1843.396484	2542.100830
1841.820313	2584.039795
1840.242188	2548.912109
1838.664063	2579.827393
1837.087891	2484.987061
1835.509766	2519.045166
1833.929688	2531.093262
1832.351563	2488.158203
1830.773438	2467.227295
1829.193359	2449.445068
1827.613281	2574.525146
1826.033203	2464.126953
1824.453125	2488.724121
1822.871094	2459.969727
1821.291016	2448.480957
1819.708984	2474.633789
1818.126953	2416.109863
1816.544922	2442.258301
1814.962891	2471.530273
1813.380859	2505.490723
1811.796875	2425.075928
1810.214844	2396.381104
1808.630859	2460.088379
1807.046875	2414.176270
1805.460938	2457.504395
1803.876953	2464.820313
1802.292969	2492.473145
1800.707031	2491.957031
1799.121094	2425.752930
1797.535156	2384.594971
1795.949219	2465.394775
1794.361328	2478.951172
1792.775391	2364.360596
1791.187500	2379.494385
1789.599609	2314.957275
1788.011719	2308.230469
1786.423828	2332.734375
1784.835938	2316.639893
1783.246094	2380.150635
1781.656250	2351.569336
1780.066406	2366.682861
1778.476563	2353.713623
1776.886719	2332.952637
1775.296875	2379.242676
1773.705078	2321.073242
1772.113281	2325.267090
1770.523438	2285.830566
1768.929688	2316.513184
1767.337891	2361.200684
1765.746094	2313.994629
1764.152344	2293.275146
1762.558594	2274.120605
1760.966797	2335.897705
1759.371094	2324.521484
1757.777344	2249.370850
1756.183594	2269.122314
1754.587891	2291.975098
1752.992188	2349.020020
1751.396484	2207.091797
1749.800781	2282.777832
1748.205078	2206.175049
1746.609375	2196.396973
1745.011719	2268.931641
1743.414063	2259.144043
1741.816406	2236.941895
1740.218750	2222.508789
1738.621094	2167.737061
1737.021484	2162.632568
1735.423828	2272.308594
1733.824219	2222.212402
1732.224609	2246.557373
1730.625000	2267.791504
1729.023438	2258.021484
1727.423828	2183.178223
1725.822266	2147.094238
1724.220703	2220.990723
1722.619141	2122.974121
1721.017578	2164.333008
1719.416016	2166.978516
1717.812500	2164.980225
1716.210938	2127.396973
1714.607422	2218.220215
1713.003906	2174.455078
1711.400391	2163.178955
1709.794922	2131.810547
1708.191406	2126.730225
1706.585938	2096.927490
1704.980469	2122.755127
1703.375000	2083.697510
1701.769531	2107.972656
1700.164063	2167.749023
1698.556641	2159.579346
1696.949219	2131.349365
1695.341797	2121.647461
1693.734375	2125.833740
1692.126953	2023.594238
1690.519531	2066.350098
1688.910156	2056.669434
1687.300781	2050.075195
1685.691406	2046.565918
1684.082031	1996.834839
1682.472656	2079.602783
1680.861328	2054.527344
1679.251953	2047.940063
1677.640625	2052.131592
1676.029297	2045.547119
1674.417969	2115.907471
1672.806641	2043.155762
1671.193359	2135.021729
1669.580078	2002.318970
1667.968750	2018.814453
1666.355469	2061.436035
1664.740234	2022.583252
1663.126953	2031.380859
1661.513672	2003.304199
1659.898438	2007.494019
1658.283203	1984.040649
1656.667969	2025.080200
1655.052734	2016.982544
1653.435547	1922.946533
1651.820313	1999.262939
1650.203125	2064.809082
1648.585938	1961.619141
1646.968750	2057.813477
1645.351563	1940.870239
1643.732422	2017.102661
1642.115234	2035.070679
1640.496094	1881.434326
1638.876953	2021.966309
1637.257813	1941.907471
1635.638672	1944.564087
1634.017578	1980.897827
1632.398438	1972.831421
1630.777344	1961.707886
1629.156250	1877.154907
1627.535156	1913.471924
1625.912109	1955.890625
1624.291016	1917.258911
1622.667969	1933.672729
1621.044922	1924.098877
1619.421875	1931.336426
1617.798828	1903.435181
1616.175781	1904.564453
1614.550781	1916.382202
1612.927734	1850.334229
1611.302734	1952.213379
1609.677734	1921.284180
1608.050781	1905.625122
1606.425781	1967.767944
1604.798828	1836.199219
1603.173828	1870.884521
1601.546875	1865.919678
1599.919922	1897.535889
1598.291016	1859.043579
1596.664063	1823.614258
1595.035156	1882.636230
1593.406250	1892.901978
1591.777344	1837.694580
1590.148438	1889.065063
1588.519531	1900.844727
1586.888672	1936.964478
1585.259766	1913.739990
1583.628906	1867.711060
1581.998047	1832.345581
1580.367188	1774.190430
1578.734375	1810.298218
1577.103516	1873.744873
1575.470703	1835.368652
1573.837891	1825.869873
1572.205078	1814.856323
1570.572266	1825.104736
1568.937500	1861.155884
1567.304688	1790.949097
1565.669922	1816.370117
1564.035156	1785.646973
1562.400391	1811.058105
1560.765625	1730.304932
1559.128906	1742.071411
1557.492188	1773.538818
1555.857422	1764.073608
1554.220703	1698.549683
1552.582031	1825.444214
1550.945313	1752.361816
1549.308594	1759.565430
1547.669922	1731.945313
1546.031250	1752.772583
1544.392578	1726.678589
1542.753906	1739.933105
1541.113281	1707.801880
1539.474609	1739.202759
1537.833984	1744.885864
1536.193359	1750.566406
1534.552734	1706.368286
1532.910156	1683.343750
1531.269531	1705.651733
1529.626953	1658.469727
1527.986328	1726.077148
1526.343750	1755.910889
1524.699219	1660.443848
1523.056641	1614.819702
1521.412109	1647.675415
1519.769531	1663.923218
1518.125000	1651.507690
1516.480469	1673.779297
1514.835938	1659.859131
1513.189453	1650.466675
1511.544922	1604.911011
1509.898438	1615.120117
1508.251953	1656.957642
1506.605469	1652.091187
1504.957031	1650.238159
1503.310547	1652.901855
1501.662109	1706.736328
1500.013672	1650.701904
1498.365234	1594.691040
1496.716797	1668.056885
1495.068359	1630.111206
1493.417969	1623.754272
1491.769531	1659.488525
1490.119141	1600.528442
1488.468750	1586.668823
1486.816406	1616.379150
1485.166016	1582.997192
1483.513672	1551.130859
1481.861328	1559.811890
1480.208984	1544.473999
1478.556641	1578.663330
1476.904297	1593.334106
1475.250000	1643.998535
1473.597656	1624.156372
1471.943359	1577.333984
1470.289063	1588.994141
1468.634766	1593.155518
1466.978516	1550.864136
1465.324219	1595.480591
1463.667969	1535.232788
1462.011719	1561.863892
1460.355469	1564.529053
1458.699219	1547.734009
1457.041016	1623.730591
1455.382813	1521.645996
1453.726563	1545.259521
1452.068359	1580.827637
1450.408203	1499.750122
1448.750000	1563.716675
1447.089844	1593.279541
1445.431641	1566.045776
1443.771484	1588.125610
1442.111328	1531.030396
1440.451172	1536.680908
1438.789063	1513.960815
1437.126953	1518.119629
1435.466797	1519.291748
1433.804688	1562.242432
1432.142578	1521.634155
1430.478516	1533.244873
1428.816406	1497.133179
1427.152344	1554.960449
1425.488281	1475.633667
1423.824219	1520.028809
1422.160156	1467.561035
1420.494141	1553.647583
1418.830078	1517.576782
1417.164063	1514.278320
1415.498047	1487.162842
1413.832031	1494.290283
1412.166016	1480.582520
1410.498047	1435.638428
1408.830078	1472.519897
1407.164063	1452.876709
1405.494141	1443.649170
1403.826172	1480.505249
1402.158203	1440.066650
1400.488281	1467.992920
1398.818359	1464.711548
1397.150391	1454.005493
1395.478516	1452.213257
1393.808594	1417.761108
1392.138672	1413.008545
1390.466797	1420.129395
1388.794922	1442.083496
1387.123047	1453.644897
1385.451172	1396.983521
1383.777344	1430.789673
1382.105469	1454.204956
1380.431641	1430.184326
1378.757813	1471.370483
1377.083984	1456.244751
1375.410156	1435.200928
1373.734375	1436.378052
1372.060547	1437.554443
1370.384766	1391.364624
1368.708984	1396.989502
1367.033203	1396.693726
1365.355469	1457.046631
1363.679688	1376.876343
1362.001953	1326.312012
1360.324219	1402.902466
1358.646484	1411.473145
1356.968750	1397.875122
1355.289063	1410.875244
1353.609375	1409.099243
1351.931641	1336.440918
1350.250000	1373.068115
1348.570313	1358.016113
1346.890625	1357.728271
1345.208984	1344.161133
1343.529297	1333.550049
1341.847656	1308.194824
1340.164063	1371.322754
1338.482422	1368.083496
1336.800781	1327.997681
1335.117188	1315.927246
1333.433594	1328.907715
1331.750000	1288.855469
1330.066406	1312.144653
1328.382813	1320.700439
1326.697266	1333.668579
1325.011719	1306.894531
1323.326172	1293.374512
1321.640625	1338.704224
1319.955078	1311.945801
1318.267578	1352.840820
1316.582031	1321.680176
1314.894531	1318.459839
1313.207031	1241.763672
1311.517578	1335.530884
1309.830078	1295.586426
1308.140625	1314.403198
1306.453125	1242.177612
1304.763672	1250.721680
1303.072266	1300.356812
1301.382813	1244.320923
1299.693359	1213.248535
1298.001953	1303.928467
1296.310547	1256.725830
1294.619141	1213.941406
1292.927734	1270.849731
1291.234375	1266.183105
1289.542969	1192.655029
1287.849609	1272.969238
1286.156250	1208.258179
1284.462891	1268.035278
1282.767578	1270.693481
1281.074219	1245.541748
1279.378906	1258.446655
1277.683594	1214.289063
1275.988281	1222.806885
1274.292969	1215.234863
1272.595703	1206.203979
1270.900391	1216.179688
1269.203125	1229.073853
1267.505859	1224.428955
1265.808594	1249.002319
1264.109375	1143.579712
1262.412109	1209.045288
1260.712891	1163.531372
1259.013672	1236.262573
1257.314453	1234.540161
1255.613281	1205.098145
1253.914063	1207.758911
1252.212891	1211.876709
1250.511719	1167.877808
1248.810547	1180.748535
1247.109375	1212.559937
1245.408203	1175.874268
1243.705078	1214.956909
1242.001953	1168.090942
1240.298828	1173.666626
1238.595703	1193.798462
1236.892578	1173.166504
1235.187500	1190.379150
1233.482422	1149.387695
1231.777344	1185.507935
1230.072266	1106.722900
1228.367188	1142.836792
1226.662109	1120.787842
1224.955078	1172.870239
1223.248047	1127.575195
1221.541016	1138.956665
1219.833984	1105.307617
1218.125000	1144.279419
1216.417969	1123.709839
1214.708984	1143.791138
1213.000000	1097.108643
1211.291016	1152.008423
1209.580078	1161.916748
1207.871094	1154.417358
1206.160156	1139.671265
1204.449219	1156.823853
1202.738281	1127.590088
1201.027344	1078.082153
1199.314453	1102.480225
1197.603516	1063.137573
1195.890625	1119.386719
1194.177734	1109.013062
1192.464844	1063.904053
1190.750000	1134.588623
1189.037109	1051.874634
1187.322266	1073.348267
1185.607422	1086.135254
1183.892578	1098.916626
1182.177734	1059.649658
1180.460938	1065.204468
1178.744141	1037.521606
1177.027344	1079.196289
1175.310547	1104.964722
1173.593750	1075.846680
1171.876953	1069.841553
1170.158203	1097.038818
1168.439453	1047.736694
1166.720703	1034.526855
1165.001953	1074.696899
1163.281250	1067.255859
1161.562500	1062.701782
1159.841797	1040.850098
1158.121094	1027.655518
1156.400391	1049.050781
1154.677734	1035.859985
1152.957031	1068.767212
1151.234375	1008.055176
1149.511719	993.441650
1147.789063	1050.807495
1146.066406	1050.582520
1144.341797	1030.213745
1142.619141	1051.571289
1140.894531	1068.604858
1139.169922	1000.793640
1137.445313	994.828857
1135.718750	1026.236450
1133.994141	997.276672
1132.267578	1002.809814
1130.541016	1009.776855
1128.814453	1002.380127
1127.085938	1005.036865
1125.359375	976.112305
1123.630859	998.865540
1121.902344	990.042358
1120.173828	997.002808
1118.443359	1016.868286
1116.714844	982.236145
1114.984375	983.459167
1113.253906	973.215149
1111.523438	1020.295410
1109.792969	958.470825
1108.060547	985.480530
1106.330078	953.763489
1104.597656	983.626038
1102.865234	964.805969
1101.132813	945.993958
1099.398438	977.269592
1097.666016	982.782043
1095.931641	941.094360
1094.197266	943.752197
1092.462891	932.112671
1090.726563	999.090271
1088.992188	946.002563
1087.255859	931.512451
1085.519531	905.601318
1083.783203	942.537109
1082.046875	943.762451
1080.308594	982.101501
1078.570313	956.201599
1076.833984	924.605225
1075.093750	903.008301
1073.355469	931.339233
1071.617188	872.675537
1069.876953	936.641541
1068.136719	966.372131
1066.396484	943.364075
1064.656250	884.747986
1062.914063	910.197144
1061.173828	927.090698
1059.431641	902.686829
1057.689453	919.574585
1055.947266	886.643616
1054.203125	943.368042
1052.460938	931.784546
1050.716797	910.250122
1048.972656	885.881042
1047.228516	943.978271
1045.484375	923.876282
1043.738281	940.729980
1041.992188	920.637207
1040.246094	917.598206
1038.500000	952.903870
1036.753906	944.179810
1035.005859	996.498596
1033.259766	967.899902
1031.511719	987.556152
1029.763672	1000.110840
1028.015625	958.765015
1026.265625	1022.367920
1024.515625	995.211792
1022.767578	1017.675415
1021.015625	965.024597
1019.265625	997.402283
1017.515625	1045.347046
1015.763672	1028.127930
1014.011719	1039.233154
1012.259766	1043.255859
1010.507813	1035.954834
1008.755859	1049.880859
1007.001953	1063.800781
1005.248047	1045.185303
1003.494141	1105.762695
1001.740234	1098.455688
999.986328	1074.190918
998.230469	1174.289673
996.476563	1137.303589
994.720703	1192.145508
992.962891	1290.741699
991.207031	1335.643555
989.451172	1373.468018
987.693359	1440.912964
985.935547	1465.999512
984.177734	1529.163208
982.419922	1455.494263
980.660156	1511.582397
978.900391	1546.500000
977.140625	1484.150269
975.380859	1502.148804
973.621094	1522.957031
971.861328	1490.231812
970.099609	1478.644165
968.337891	1544.497437
966.576172	1554.017212
964.814453	1457.983643
963.050781	1492.844116
961.289063	1486.894775
959.525391	1451.413208
957.761719	1470.785034
955.998047	1477.496216
954.232422	1425.173462
952.466797	1497.935425
950.703125	1414.723267
948.937500	1438.295288
947.169922	1474.495728
945.404297	1430.653564
943.636719	1452.802979
941.871094	1484.766235
940.103516	1405.873413
938.335938	1328.417236
936.566406	1308.495483
934.798828	1268.952026
933.029297	1114.473633
931.259766	1072.185913
929.490234	985.076599
927.718750	970.853943
925.949219	931.425903
924.177734	966.232727
922.406250	889.021667
920.634766	923.822510
918.863281	913.826477
917.089844	910.830383
915.316406	875.662598
913.542969	886.661072
911.769531	868.292236
909.996094	903.052002
908.220703	867.916138
906.447266	867.728088
904.671875	839.599976
902.896484	850.591675
901.119141	843.425354
899.343750	813.924561
897.566406	810.956543
895.789063	835.899597
894.011719	837.113586
892.234375	843.906555
890.455078	826.988586
888.677734	807.289307
886.898438	828.023926
885.119141	838.993774
883.337891	790.043701
881.558594	810.768433
879.777344	835.662415
877.996094	807.631714
876.214844	815.809509
874.433594	789.187073
872.650391	802.931458
870.869141	795.800903
869.085938	756.681335
867.302734	748.173157
865.519531	799.453857
863.734375	821.521118
861.951172	797.716980
860.166016	807.269897
858.380859	818.207825
856.593750	804.141663
854.808594	766.476318
853.021484	785.745178
851.234375	832.764526
849.447266	790.954407
847.660156	775.521851
845.873047	804.481079
844.083984	793.212402
842.294922	808.290771
840.505859	788.709229
838.716797	777.451172
836.925781	839.630981
835.136719	821.440491
833.345703	865.579529
831.554688	847.391174
829.763672	845.822571
827.970703	894.079468
826.179688	860.675659
824.386719	861.871887
822.593750	861.684387
820.798828	855.965637
819.005859	837.806641
817.210938	858.357605
815.417969	836.060120
813.621094	869.036987
811.826172	841.221497
810.031250	824.466187
808.234375	807.718140
806.437500	808.922729
804.640625	804.606262
802.843750	840.306152
801.046875	751.834351
799.248047	862.007629
797.449219	798.389893
795.650391	869.903809
793.851563	857.309509
792.050781	864.012756
790.251953	840.403442
788.451172	859.504028
786.650391	863.448059
784.849609	859.129456
783.046875	854.812683
781.244141	860.131165
779.443359	886.085938
777.640625	786.848877
775.835938	792.178528
774.033203	838.756104
772.228516	806.954895
770.423828	857.632080
768.619141	812.099365
766.814453	816.043640
765.009766	899.649780
763.203125	896.707092
761.396484	884.155212
759.589844	889.452759
757.783203	856.323120
755.974609	857.508240
754.167969	873.781616
752.359375	829.705627
750.550781	845.977905
748.740234	825.230957
746.931641	838.755920
745.121094	809.798218
743.310547	835.649780
741.500000	819.031860
739.689453	759.972229
737.876953	763.913269
736.066406	765.115112
734.253906	717.053162
732.441406	703.215271
730.626953	742.728455
728.814453	704.275452
727.000000	743.771057
725.185547	720.370728
723.371094	716.113403
721.556641	698.194519
719.740234	657.060974
717.925781	697.889221
716.109375	696.371216
714.291016	692.123474
712.474609	712.444641
710.658203	702.737061
708.839844	690.305176
707.021484	692.882019
705.203125	662.730286
703.382813	695.305542
701.564453	718.325134
699.744141	715.442444
697.923828	705.748718
696.103516	653.832458
694.283203	671.393433
692.460938	644.015381
690.638672	688.795837
688.816406	665.508667
686.994141	674.887573
685.171875	658.415405
683.347656	681.392273
681.523438	705.718811
679.699219	666.139648
677.875000	678.226257
676.050781	712.049438
674.224609	680.646179
672.398438	717.170532
670.572266	653.188293
668.746094	711.425415
666.917969	685.479187
665.091797	685.328918
663.263672	729.952698
661.435547	672.820007
659.607422	655.041931
657.777344	675.236694
655.947266	675.088623
654.119141	688.493591
652.287109	676.147461
650.457031	700.383911
648.626953	707.002258
646.794922	701.430664
644.962891	745.952698
643.130859	822.939575
641.298828	779.455872
639.464844	822.578369
637.630859	819.692505
635.796875	884.424438
633.962891	862.597717
632.128906	908.367371
630.292969	910.870789
628.458984	925.533325
626.623047	896.962219
624.785156	917.023438
622.949219	903.319458
621.111328	863.972290
619.275391	911.020569
617.437500	891.929260
615.597656	870.148193
613.759766	847.027832
611.919922	832.008484
610.080078	827.781006
608.240234	803.337219
606.400391	850.326050
604.560547	824.540588
602.718750	883.626953
600.876953	894.206177
599.035156	898.048706
597.193359	915.350525
595.349609	940.719482
593.507813	923.020935
591.664063	913.401306
589.820313	926.649536
587.974609	875.349915
586.130859	865.747009
584.285156	833.299683
582.439453	815.647705
580.593750	862.488525
578.748047	823.347473
576.900391	844.651794
575.052734	808.216858
573.205078	809.381104
571.357422	841.409973
569.509766	862.691284
567.660156	803.480957
565.810547	838.171875
563.960938	827.260986
562.111328	798.928589
560.259766	790.711365
558.410156	770.438721
556.558594	835.909241
554.707031	827.689148
552.855469	795.370544
551.001953	797.872620
549.148438	817.772949
547.294922	826.959534
545.441406	865.574158
543.587891	889.458862
541.732422	911.995667
539.878906	871.686279
538.023438	1023.871765
536.167969	1002.264221
534.310547	1150.345459
532.455078	1307.711670
530.597656	1549.142822
528.740234	2073.523926
526.882813	3263.777832
525.023438	7094.647461
523.166016	15371.011719
521.306641	24548.169922
519.447266	21217.835938
517.585938	9852.534180
515.726563	4144.642578
513.865234	2351.088623
512.003906	1653.660278
510.142578	1348.214722
508.281250	1125.484009
506.417969	1010.714355
504.556641	921.290894
502.693359	842.555298
500.828125	790.469604
498.964844	816.904114
497.101563	715.630737
495.236328	718.132324
493.371094	686.063599
491.505859	704.521912
489.638672	665.825378
487.771484	682.951233
485.906250	672.172913
484.039063	679.992920
482.169922	690.465088
480.302734	666.416931
478.433594	637.070435
476.564453	692.660767
474.695313	665.974670
472.826172	752.039978
470.955078	755.851685
469.083984	762.313232
467.212891	766.120911
465.341797	769.926819
463.470703	781.680298
461.597656	839.789124
459.724609	870.061951
457.851563	950.633362
455.978516	988.810364
454.105469	1053.438721
452.230469	1168.317017
450.355469	1124.404785
448.480469	1147.961426
446.605469	1224.397095
444.728516	1168.603882
442.851563	1193.456421
440.976563	1139.015991
439.097656	1126.873779
437.220703	1047.377319
435.341797	1089.400635
433.464844	966.381165
431.585938	1036.121582
429.705078	997.623230
427.826172	926.158997
425.945313	962.886169
424.064453	950.804016
422.183594	988.827759
420.302734	920.064880
418.421875	1001.567566
416.539063	1073.811035
414.656250	1229.010376
412.773438	1395.993408
410.888672	1739.337646
409.005859	2340.541992
407.121094	3381.055908
405.236328	4419.791992
403.351563	4796.362793
401.464844	3971.968994
399.580078	2810.004150
397.693359	1948.292603
395.806641	1373.490967
393.917969	1214.185303
392.031250	1209.974365
390.142578	1626.075317
388.253906	2638.174072
386.365234	3129.919922
384.476563	2348.230957
382.585938	1569.513672
380.695313	1186.057617
378.804688	1051.998657
376.914063	1021.601929
375.023438	979.418457
373.130859	928.077698
371.238281	872.828125
369.345703	837.256958
367.453125	787.291870
365.558594	755.684448
363.666016	763.372620
361.771484	744.875488
359.875000	717.224854
357.980469	690.894958
356.083984	735.220764
354.189453	735.057129
352.292969	696.971924
350.394531	699.431458
348.498047	697.968689
346.599609	671.677979
344.701172	674.141357
342.802734	689.665466
340.904297	716.935608
339.003906	671.079834
337.105469	676.151611
335.205078	661.645752
333.302734	691.507141
331.402344	643.088745
329.500000	644.249634
327.597656	709.298950
325.695313	646.569641
323.792969	706.376282
321.890625	691.885925
319.986328	657.861572
318.082031	656.412476
316.177734	683.610535
314.271484	713.400085
312.367188	710.637939
310.460938	743.010498
308.554688	746.747620
306.648438	732.273743
304.740234	777.623474
302.833984	738.447449
300.925781	777.276489
299.017578	738.117920
297.107422	721.063416
295.199219	733.891663
293.289063	683.081177
291.378906	647.873413
289.468750	664.603455
287.556641	672.241638
285.646484	696.743530
283.734375	643.403320
281.822266	639.368958
279.910156	643.115967
277.996094	600.193909
276.082031	638.940552
274.167969	614.178833
272.253906	611.450684
270.339844	622.970459
268.423828	637.074768
266.507813	616.219116
264.591797	623.847107
262.675781	586.181641
260.759766	613.218506
258.841797	589.799805
256.923828	575.443481
255.005859	605.050171
253.085938	586.819092
251.167969	594.441406
249.248047	603.352295
247.328125	610.967407
245.408203	591.459778
243.486328	631.351746
241.566406	624.756348
239.644531	588.481689
237.722656	597.381653
235.798828	604.987671
233.876953	612.590210
231.953125	598.269958
230.029297	638.097656
228.105469	617.333984
226.179688	601.733643
224.253906	605.463501
222.330078	645.253784
220.402344	600.041748
218.476563	599.907288
216.550781	634.523682
214.623047	575.189697
212.695313	586.639221
210.767578	569.787109
208.837891	594.091797
206.908203	588.816101
204.980469	609.249451
203.048828	585.981995
201.119141	632.101990
199.189453	598.563965
197.257813	598.429749
195.326172	585.456543
193.394531	604.579346
191.460938	592.893860
189.529297	594.043884
187.595703	590.062378
185.662109	616.861572
183.726563	570.565063
181.792969	562.745728
179.857422	599.785583
177.921875	577.868774
175.986328	590.549194
174.048828	531.503052
172.113281	551.870789
170.175781	588.871338
168.238281	555.462585
166.298828	584.768127
164.361328	584.636780
162.421875	583.226440
160.482422	574.144409
158.542969	595.748718
156.601563	589.224121
154.662109	585.258179
152.720703	541.689270
150.779297	573.499573
148.835938	579.755615
146.894531	519.620056
144.951172	546.308044
143.007813	521.938660
141.064453	489.925140
139.119141	526.806213
137.175781	505.008057
135.230469	529.119202
133.285156	518.802612
131.337891	497.020874
129.392578	484.167786
127.445313	512.083313
125.498047	500.506073
123.550781	485.114258
121.601563	518.102539
119.652344	493.804718
117.705078	451.704163
115.753906	503.759369
113.804688	450.228943
111.853516	420.881989
109.904297	404.260803
107.953125	378.750275
106.000000	288.446136
104.048828	236.294693
